;  Optical constants for SiO2, fused (amorphous) quartz
; 
;   taken from:
;
;   'Handbook of Optical Constants of Solids II', Ed. by Edward D. Palik,
;   Academic Press, Inc., 1991.
;   
;    Lambda (nm)            n            k
;-----------------------------------------
101.21	1.41000000	0.82400000
103.32	1.47500000	0.86100000
105.07	1.55400000	0.87400000
106.88	1.63500000	0.85900000
108.75	1.71600000	0.81000000
110.70	1.76600000	0.71800000
112.71	1.73900000	0.56900000
113.74	1.68700000	0.56500000
114.80	1.58700000	0.61800000
115.87	1.51300000	0.72500000
116.96	1.49200000	0.91400000
118.08	1.56700000	1.11000000
118.64	1.64500000	1.13600000
119.21	1.77200000	1.13000000
119.79	1.91900000	1.04500000
120.37	2.04800000	0.92500000
120.96	2.15200000	0.81000000
121.55	2.24000000	0.71500000
122.75	2.33200000	0.46000000
123.98	2.33000000	0.32300000
125.23	2.29200000	0.23600000
126.51	2.24300000	0.16800000
127.81	2.19000000	0.11900000
129.15	2.14000000	0.07700000
130.51	2.09200000	0.05610000
131.89	2.04700000	0.04300000
133.31	2.00600000	0.03390000
134.76	1.96900000	0.02710000
136.24	1.93500000	0.02280000
137.76	1.90400000	0.01890000
139.30	1.87600000	0.01560000
140.89	1.85000000	0.01320000
142.51	1.82500000	0.01090000
144.16	1.80300000	0.00838000
145.86	1.78300000	0.00557000
147.60	1.76400000	0.00317000
149.37	1.74700000	0.00140000
151.19	1.73000000	0.00046300
153.06	1.71600000	0.00012200
154.97	1.70200000	0.00003200
158.95	1.67600000	0.00000470
163.13	1.65300000	0.00000000
167.54	1.63300000	0.00000000
172.19	1.61600000	0.00000000
177.11	1.60000000	0.00000000
183.67	1.58200000	0.00000000
190.74	1.56700000	0.00000000
198.37	1.55400000	0.00000000
206.63	1.54300000	0.00000000
213.85	1.53429000	0.00000000
214.43	1.53371000	0.00000000
226.74	1.52276000	0.00000000
230.20	1.52009000	0.00000000
237.82	1.51474000	0.00000000
239.93	1.51338000	0.00000000
248.26	1.50841000	0.00000000
265.19	1.50004000	0.00000000
269.87	1.49805000	0.00000000
275.27	1.49592000	0.00000000
280.33	1.49404000	0.00000000
289.35	1.49099000	0.00000000
296.72	1.48873000	0.00000000
302.14	1.48719000	0.00000000
330.24	1.48053000	0.00000000
334.13	1.47976000	0.00000000
340.35	1.47858000	0.00000000
346.60	1.47746000	0.00000000
361.04	1.47512000	0.00000000
365.00	1.47453000	0.00000000
404.63	1.46961000	0.00000000
435.81	1.46669000	0.00000000
467.80	1.46429000	0.00000000
486.12	1.46313000	0.00000000
508.55	1.46187000	0.00000000
546.05	1.46008000	0.00000000
576.95	1.45885000	0.00000000
579.05	1.45877000	0.00000000
587.53	1.45847000	0.00000000
589.23	1.45841000	0.00000000
643.82	1.45671000	0.00000000
656.26	1.45637000	0.00000000
667.78	1.45608000	0.00000000
706.48	1.45515000	0.00000000
852.10	1.45248000	0.00000000
894.32	1.45185000	0.00000000
1013.90	1.45025000	0.00000000
1082.89	1.44941000	0.00000000
1128.63	1.44888000	0.00000000
1362.15	1.44621000	0.00000000
1395.01	1.44584000	0.00000000
1469.44	1.44497000	0.00000000
1529.47	1.44427000	0.00000000
1660.53	1.44267000	0.00000000
1680.86	1.44241000	0.00000000
1693.14	1.44226000	0.00000000
1709.06	1.44205000	0.00000000
1813.00	1.44069000	0.00000000
1970.00	1.43851000	0.00000000
2058.00	1.43722000	0.00000000
2152.51	1.43576000	0.00000000
2325.34	1.43292000	0.00000000
2437.29	1.43095000	0.00000000
