; Refractive index spectrum for Ag by Johnson
;
; P. B. Johnson and R. W. Christy. Optical Constants of the Noble Metals, <a href="http://dx.doi.org/10.1103/PhysRevB.6.4370"><i>Phys. Rev. B</i> <b>6</b>, 4370-4379 (1972)</a>
;
; Room temperature
;
; lambda/nm    n     k
187.90 	1.070000 	1.212000 
191.60 	1.100000 	1.232000 
195.30 	1.120000 	1.255000 
199.30 	1.140000 	1.277000 
203.30 	1.150000 	1.296000 
207.30 	1.180000 	1.312000 
211.90 	1.200000 	1.325000 
216.40 	1.220000 	1.336000 
221.40 	1.250000 	1.342000 
226.20 	1.260000 	1.344000 
231.30 	1.280000 	1.357000 
237.10 	1.280000 	1.367000 
242.60 	1.300000 	1.378000 
249.00 	1.310000 	1.389000 
255.10 	1.330000 	1.393000 
261.60 	1.350000 	1.387000 
268.90 	1.380000 	1.372000 
276.10 	1.410000 	1.331000 
284.40 	1.410000 	1.264000 
292.40 	1.390000 	1.161000 
300.90 	1.340000 	0.964000 
310.70 	1.130000 	0.616000 
320.40 	0.810000 	0.392000 
331.50 	0.170000 	0.829000 
342.50 	0.140000 	1.142000 
354.20 	0.100000 	1.419000 
367.90 	0.070000 	1.657000 
381.50 	0.050000 	1.864000 
397.40 	0.050000 	2.070000 
413.30 	0.050000 	2.275000 
430.50 	0.040000 	2.462000 
450.90 	0.040000 	2.657000 
471.40 	0.050000 	2.869000 
495.90 	0.050000 	3.093000 
520.90 	0.050000 	3.324000 
548.60 	0.060000 	3.586000 
582.10 	0.050000 	3.858000 
616.80 	0.060000 	4.152000 
659.50 	0.050000 	4.483000 
704.50 	0.040000 	4.838000 
756.00 	0.030000 	5.242000 
821.10 	0.040000 	5.727000 
892.00 	0.040000 	6.312000 
984.00 	0.040000 	6.992000 
1088.00 	0.040000 	7.795000 
1216.00 	0.090000 	8.828000 
1393.00 	0.130000 	10.100000 
1610.00 	0.150000 	11.850000 
1937.00 	0.240000 	14.080000 
