;  Optical constants for Ag
; 
;   taken from:
;
;   'Handbook of Optical Constants of Solids', Ed. by Edward D. Palik,
;   Academic Press, Inc., 1985.
;   
;    Lambda (nm)            n            k
;-----------------------------------------
102.50	1.30800000	0.58100000
105.10	1.30400000	0.57800000
107.80	1.30000000	0.57300000
110.70	1.29300000	0.56600000
113.70	1.28000000	0.56000000
117.00	1.26500000	0.56000000
120.40	1.25200000	0.56400000
124.00	1.24100000	0.56800000
127.80	1.22900000	0.56600000
134.80	1.18200000	0.55000000
137.80	1.14900000	0.55200000
140.90	1.11200000	0.56300000
144.20	1.07300000	0.58100000
147.60	1.03200000	0.61000000
151.20	0.99300000	0.65300000
155.00	0.96200000	0.70600000
159.00	0.94000000	0.77000000
163.10	0.93500000	0.83200000
167.50	0.93600000	0.89200000
172.20	0.94200000	0.95100000
177.10	0.95300000	1.01000000
182.30	0.96900000	1.07000000
187.90	0.99500000	1.13000000
193.70	1.02800000	1.18000000
196.80	1.04800000	1.21000000
200.00	1.07200000	1.24000000
203.30	1.09800000	1.26000000
206.60	1.12500000	1.27000000
213.80	1.17300000	1.29000000
221.40	1.20800000	1.30000000
229.60	1.23800000	1.31000000
238.40	1.26500000	1.33000000
248.00	1.29800000	1.35000000
253.00	1.32000000	1.35000000
258.30	1.34300000	1.35000000
263.80	1.37200000	1.35000000
269.50	1.40400000	1.33000000
275.50	1.44100000	1.31000000
281.80	1.47600000	1.26000000
288.30	1.50200000	1.19000000
295.20	1.51900000	1.08000000
298.80	1.52200000	0.99200000
302.40	1.49600000	0.88200000
306.10	1.43200000	0.76600000
310.00	1.32300000	0.64700000
311.50	1.24600000	0.58600000
313.90	1.14900000	0.54000000
315.50	1.04400000	0.51400000
317.90	0.93200000	0.50400000
319.50	0.81500000	0.52600000
322.00	0.70800000	0.56500000
323.70	0.61600000	0.60900000
326.30	0.52600000	0.66300000
330.60	0.37100000	0.81300000
332.40	0.32100000	0.90200000
335.10	0.29400000	0.98600000
339.70	0.25900000	1.12000000
344.40	0.23800000	1.24000000
354.20	0.20900000	1.44000000
364.70	0.18600000	1.61000000
375.70	0.20000000	1.67000000
387.50	0.19200000	1.81000000
400.00	0.17300000	1.95000000
413.30	0.17300000	2.11000000
427.50	0.16000000	2.26000000
442.80	0.15700000	2.40000000
459.20	0.14400000	2.56000000
476.90	0.13200000	2.72000000
495.90	0.13000000	2.88000000
516.60	0.13000000	3.07000000
539.10	0.12900000	3.25000000
563.60	0.12000000	3.45000000
590.40	0.12100000	3.66000000
619.90	0.13100000	3.88000000
652.60	0.14000000	4.15000000
688.80	0.14000000	4.44000000
729.30	0.14800000	4.74000000
774.90	0.14300000	5.09000000
826.60	0.14500000	5.50000000
885.60	0.16300000	5.95000000
953.70	0.19800000	6.43000000
1033.00	0.22600000	6.99000000
1127.00	0.25100000	7.67000000
1240.00	0.32900000	8.49000000
1265.00	0.37500000	7.78000000
1291.00	0.38300000	7.92000000
1305.00	0.35800000	8.95000000
1319.00	0.39200000	8.06000000
1348.00	0.40100000	8.21000000
1378.00	0.41100000	8.37000000
1378.00	0.39600000	9.48000000
1409.00	0.42100000	8.37000000
1442.00	0.43100000	8.70000000
1459.00	0.44600000	10.10000000
1476.00	0.44200000	8.88000000
1512.00	0.45500000	9.08000000
1550.00	0.46900000	9.32000000
1550.00	0.51400000	10.80000000
1590.00	0.48500000	9.57000000
1631.00	0.50100000	9.84000000
1653.00	0.62400000	11.50000000
1675.00	0.51900000	10.10000000
1722.00	0.53700000	10.40000000
1771.00	0.55700000	10.70000000
1771.00	0.84400000	12.20000000
1823.00	0.57800000	11.10000000
1879.00	0.60000000	11.40000000
1907.00	0.87300000	13.30000000
1937.00	0.62400000	11.80000000
2000.00	0.65000000	12.20000000
2066.00	0.66800000	12.60000000
2066.00	1.06400000	14.40000000
2138.00	0.72900000	13.00000000
2214.00	0.77400000	13.50000000
2296.00	0.82300000	14.00000000
2384.00	0.87800000	14.50000000
2480.00	0.93900000	15.10000000
