; Refractive index spectrum for Ag by Rakic
;
; A. D. Rakić, A. B. Djurišic, J. M. Elazar, and M. L. Majewski. Optical properties of metallic films for vertical-cavity optoelectronic devices, <a href="http://dx.doi.org/10.1364/AO.37.005271"><i>Appl. Opt.</i> <b>37</b>, 5271-5283 (1998)</a>
;
; Fit of the experimental data from several sources to Brendel-Bormann (BB) model
;
; lambda/nm    n     k
206.60 	0.504000 	0.870386 
210.90 	0.554821 	0.965579 
215.28 	0.611869 	1.040242 
219.75 	0.670439 	1.096341 
224.32 	0.726541 	1.135841 
228.99 	0.776528 	1.161002 
233.75 	0.816935 	1.174637 
238.61 	0.844330 	1.180459 
243.57 	0.855169 	1.183906 
248.63 	0.846331 	1.194219 
253.80 	0.819422 	1.227856 
259.08 	0.793290 	1.306116 
264.46 	0.812406 	1.431452 
269.96 	0.917875 	1.560801 
275.57 	1.104524 	1.626006 
281.30 	1.319228 	1.579311 
287.15 	1.490720 	1.418169 
293.12 	1.562819 	1.182364 
299.21 	1.514228 	0.932180 
305.43 	1.357893 	0.722776 
311.78 	1.125224 	0.589890 
318.27 	0.850147 	0.554446 
324.88 	0.578744 	0.636611 
331.64 	0.389430 	0.809940 
338.53 	0.290154 	0.988366 
345.57 	0.236246 	1.142997 
352.75 	0.203456 	1.277547 
360.09 	0.181911 	1.397923 
367.57 	0.167145 	1.508215 
375.21 	0.156810 	1.611108 
383.01 	0.149517 	1.708435 
390.98 	0.144378 	1.801511 
399.10 	0.140797 	1.891315 
407.40 	0.138360 	1.978602 
415.87 	0.136775 	2.063969 
424.52 	0.135831 	2.147896 
433.34 	0.135374 	2.230774 
442.35 	0.135293 	2.312930 
451.55 	0.135504 	2.394637 
460.93 	0.135947 	2.476128 
470.52 	0.136577 	2.557603 
480.30 	0.137359 	2.639233 
490.28 	0.138270 	2.721172 
500.48 	0.139292 	2.803552 
510.88 	0.140411 	2.886494 
521.50 	0.141619 	2.970105 
532.34 	0.142909 	3.054484 
543.41 	0.144277 	3.139720 
554.71 	0.145720 	3.225897 
566.24 	0.147239 	3.313091 
578.01 	0.148832 	3.401376 
590.03 	0.150501 	3.490821 
602.30 	0.152246 	3.581491 
614.82 	0.154072 	3.673449 
627.60 	0.155979 	3.766756 
640.65 	0.157971 	3.861470 
653.96 	0.160052 	3.957650 
667.56 	0.162225 	4.055350 
681.44 	0.164493 	4.154626 
695.60 	0.166862 	4.255532 
710.07 	0.169336 	4.358122 
724.83 	0.171919 	4.462448 
739.90 	0.174616 	4.568565 
755.28 	0.177432 	4.676525 
770.98 	0.180373 	4.786380 
787.01 	0.183445 	4.898183 
803.37 	0.186651 	5.011989 
820.07 	0.190000 	5.127848 
837.12 	0.193497 	5.245817 
854.52 	0.197148 	5.365948 
872.29 	0.200960 	5.488296 
890.42 	0.204940 	5.612916 
908.93 	0.209095 	5.739864 
927.83 	0.213433 	5.869197 
947.12 	0.217961 	6.000971 
966.81 	0.222687 	6.135243 
986.91 	0.227620 	6.272074 
1007.43 	0.232768 	6.411521 
1028.37 	0.238140 	6.553646 
1049.75 	0.243747 	6.698509 
1071.57 	0.249596 	6.846173 
1093.85 	0.255700 	6.996700 
1116.59 	0.262067 	7.150156 
1139.80 	0.268709 	7.306605 
1163.50 	0.275638 	7.466114 
1187.69 	0.282866 	7.628749 
1212.38 	0.290404 	7.794580 
1237.58 	0.298265 	7.963677 
1263.31 	0.306464 	8.136110 
1289.57 	0.315014 	8.311952 
1316.38 	0.323929 	8.491276 
1343.75 	0.333224 	8.674157 
1371.69 	0.342916 	8.860672 
1400.20 	0.353020 	9.050898 
1429.31 	0.363554 	9.244914 
1459.03 	0.374536 	9.442800 
1489.36 	0.385983 	9.644639 
1520.32 	0.397916 	9.850514 
1551.93 	0.410354 	10.060509 
1584.19 	0.423318 	10.274711 
1617.13 	0.436830 	10.493208 
1650.75 	0.450913 	10.716090 
1685.06 	0.465589 	10.943448 
1720.10 	0.480885 	11.175375 
1755.85 	0.496824 	11.411965 
1792.36 	0.513434 	11.653316 
1829.62 	0.530743 	11.899524 
1867.66 	0.548779 	12.150689 
1906.48 	0.567573 	12.406915 
1946.12 	0.587155 	12.668302 
1986.58 	0.607558 	12.934958 
2027.88 	0.628817 	13.206990 
