; From SOPRA S.A. http://www.sopra-sa.com/indices.htm
; Filename    Symbol               Range (nm)     Description
; AGAINP10    (Al1Ga0)0.5In0.5P   225     1000    Aluminum Gallium Indium Phosphide (100% Al)
; lambda/nm       n         k
225.00 	1.53146500 	2.56380400 
227.50 	1.57406000 	2.61632000 
230.00 	1.62229200 	2.67136000 
232.50 	1.67738600 	2.72858800 
235.00 	1.74074900 	2.78735400 
237.50 	1.81394900 	2.84655300 
240.00 	1.89860500 	2.90445600 
242.50 	1.99618600 	2.95851800 
245.00 	2.10766500 	3.00524200 
247.50 	2.23298600 	3.04016000 
250.00 	2.37040100 	3.05812400 
252.50 	2.51585300 	3.05403800 
255.00 	2.66269900 	3.02406900 
257.50 	2.80203500 	2.96719800 
260.00 	2.92419500 	2.88770000 
262.50 	3.02581500 	2.79372800 
265.00 	3.10415600 	2.69014100 
267.50 	3.15818900 	2.58489300 
270.00 	3.19055800 	2.48487200 
272.50 	3.20565000 	2.39469200 
275.00 	3.20826200 	2.31676400 
277.50 	3.20279100 	2.25179800 
280.00 	3.19288300 	2.19940800 
282.50 	3.18137800 	2.15858400 
285.00 	3.17036900 	2.12814300 
287.50 	3.16116400 	2.10734500 
290.00 	3.15555900 	2.09359200 
292.50 	3.15409900 	2.08639200 
295.00 	3.15750300 	2.08462400 
297.50 	3.16636300 	2.08723500 
300.00 	3.18120300 	2.09319700 
302.50 	3.20249400 	2.10144300 
305.00 	3.23064400 	2.11083600 
307.50 	3.26596600 	2.12012200 
310.00 	3.30862400 	2.12790600 
312.50 	3.35855800 	2.13265300 
315.00 	3.41539300 	2.13272000 
317.50 	3.47836800 	2.12643200 
320.00 	3.54626900 	2.11220600 
322.50 	3.61743900 	2.08870200 
325.00 	3.68975000 	2.05503300 
327.50 	3.76089700 	2.01086700 
330.00 	3.82849200 	1.95654200 
332.50 	3.89033500 	1.89306200 
335.00 	3.94463100 	1.82198000 
337.50 	3.99013800 	1.74522200 
340.00 	4.02622800 	1.66485500 
342.50 	4.05285200 	1.58289200 
345.00 	4.07043600 	1.50112600 
347.50 	4.07975100 	1.42102800 
350.00 	4.08176800 	1.34372100 
352.50 	4.07753900 	1.26999100 
355.00 	4.06811700 	1.20032100 
357.50 	4.05448100 	1.13495800 
360.00 	4.03751100 	1.07396200 
362.50 	4.01797700 	1.01726200 
365.00 	3.99652400 	0.96469200 
367.50 	3.97369400 	0.91603700 
370.00 	3.94993000 	0.87104300 
372.50 	3.92559000 	0.82944800 
375.00 	3.90095900 	0.79099000 
377.50 	3.87626300 	0.75540900 
380.00 	3.85167900 	0.72246600 
382.50 	3.82734200 	0.69193200 
385.00 	3.80335400 	0.66359400 
387.50 	3.77978600 	0.63725600 
390.00 	3.75670900 	0.61275900 
392.50 	3.73417900 	0.58994200 
395.00 	3.71199600 	0.56856800 
397.50 	3.68992800 	0.54840600 
400.00 	3.66910500 	0.52980200 
402.50 	3.64881700 	0.51234900 
405.00 	3.62909800 	0.49596600 
407.50 	3.60994100 	0.48056700 
410.00 	3.59133600 	0.46607300 
412.50 	3.57327100 	0.45241100 
415.00 	3.55573200 	0.43951700 
417.50 	3.53870500 	0.42733300 
420.00 	3.52217400 	0.41580400 
422.50 	3.50612400 	0.40488300 
425.00 	3.49054000 	0.39452500 
427.50 	3.47540600 	0.38469000 
430.00 	3.46070600 	0.37534300 
432.50 	3.44642500 	0.36644800 
435.00 	3.43254800 	0.35797500 
437.50 	3.41906100 	0.34989700 
440.00 	3.40595100 	0.34218800 
442.50 	3.39320100 	0.33482300 
445.00 	3.38080100 	0.32778200 
447.50 	3.36873700 	0.32104500 
450.00 	3.35699500 	0.31459000 
452.50 	3.34556400 	0.30840300 
455.00 	3.33443700 	0.30246900 
457.50 	3.32360100 	0.29677300 
460.00 	3.31304400 	0.29130000 
462.50 	3.30275700 	0.28603800 
465.00 	3.29273000 	0.28097500 
467.50 	3.28295400 	0.27610200 
470.00 	3.27342100 	0.27140700 
472.50 	3.26412200 	0.26688200 
475.00 	3.25504800 	0.26251600 
477.50 	3.24619200 	0.25830300 
480.00 	3.23754700 	0.25423400 
482.50 	3.22910700 	0.25030300 
485.00 	3.22086300 	0.24650200 
487.50 	3.21280900 	0.24282600 
490.00 	3.20493800 	0.23926900 
492.50 	3.19724700 	0.23582400 
495.00 	3.18972800 	0.23248700 
497.50 	3.18237600 	0.22925300 
500.00 	3.17518600 	0.22611700 
502.50 	3.16815100 	0.22307400 
505.00 	3.16126800 	0.22012200 
507.50 	3.15453400 	0.21725500 
510.00 	3.14794100 	0.21447100 
512.50 	3.14148700 	0.21176600 
515.00 	3.13516500 	0.20913600 
517.50 	3.12897300 	0.20657800 
520.00 	3.12290900 	0.20409000 
522.50 	3.11696700 	0.20166900 
525.00 	3.11114500 	0.19931100 
527.50 	3.10543800 	0.19701600 
530.00 	3.09984300 	0.19478000 
532.50 	3.09435800 	0.19260100 
535.00 	3.08897800 	0.19047600 
537.50 	3.08370200 	0.18840400 
540.00 	3.07852600 	0.18638300 
542.50 	3.07344700 	0.18441200 
545.00 	3.06846400 	0.18248800 
547.50 	3.06357300 	0.18060900 
550.00 	3.05877200 	0.17877400 
552.50 	3.05405800 	0.17698100 
555.00 	3.04943000 	0.17523100 
557.50 	3.04488400 	0.17351900 
560.00 	3.04042000 	0.17184600 
562.50 	3.03603500 	0.17020900 
565.00 	3.03172500 	0.16860900 
567.50 	3.02749200 	0.16704300 
570.00 	3.02333100 	0.16551100 
572.50 	3.01924100 	0.16401100 
575.00 	3.01522200 	0.16254200 
577.50 	3.01126800 	0.16110400 
580.00 	3.00738200 	0.15969500 
582.50 	3.00356100 	0.15831500 
585.00 	2.99980100 	0.15696300 
587.50 	2.99610400 	0.15563800 
590.00 	2.99246800 	0.15433800 
592.50 	2.98888900 	0.15306500 
595.00 	2.98536800 	0.15181600 
597.50 	2.98190300 	0.15059100 
600.00 	2.97849300 	0.14938900 
602.50 	2.97513700 	0.14820900 
605.00 	2.97183200 	0.14705200 
607.50 	2.96857900 	0.14591600 
610.00 	2.96537600 	0.14480000 
612.50 	2.96222200 	0.14370500 
615.00 	2.95911500 	0.14262900 
617.50 	2.95605500 	0.14157200 
620.00 	2.95304200 	0.14053400 
622.50 	2.95007300 	0.13951400 
625.00 	2.94714800 	0.13851100 
627.50 	2.94426500 	0.13752700 
630.00 	2.94142500 	0.13655900 
632.50 	2.93862500 	0.13560600 
635.00 	2.93586700 	0.13466900 
637.50 	2.93314800 	0.13374900 
640.00 	2.93046700 	0.13284400 
642.50 	2.92782400 	0.13195200 
645.00 	2.92521800 	0.13107500 
647.50 	2.92264800 	0.13021300 
650.00 	2.92011400 	0.12936400 
652.50 	2.91761600 	0.12852800 
655.00 	2.91515100 	0.12770500 
657.50 	2.91272000 	0.12689500 
660.00 	2.91032200 	0.12609800 
662.50 	2.90795700 	0.12531300 
665.00 	2.90562300 	0.12454000 
667.50 	2.90332000 	0.12377700 
670.00 	2.90104700 	0.12302700 
672.50 	2.89880500 	0.12228700 
675.00 	2.89659100 	0.12155800 
677.50 	2.89440700 	0.12084100 
680.00 	2.89225100 	0.12013300 
682.50 	2.89012200 	0.11943500 
685.00 	2.88802100 	0.11874800 
687.50 	2.88594700 	0.11807000 
690.00 	2.88389800 	0.11740100 
692.50 	2.88187600 	0.11674200 
695.00 	2.87987900 	0.11609200 
697.50 	2.87790600 	0.11545000 
700.00 	2.87595800 	0.11481800 
702.50 	2.87403400 	0.11419400 
705.00 	2.87213400 	0.11357900 
707.50 	2.87025700 	0.11297100 
710.00 	2.86840200 	0.11237200 
712.50 	2.86656900 	0.11178000 
715.00 	2.86476000 	0.11119600 
717.50 	2.86297100 	0.11062000 
720.00 	2.86120400 	0.11005100 
722.50 	2.85945800 	0.10949000 
725.00 	2.85773200 	0.10893500 
727.50 	2.85602600 	0.10838700 
730.00 	2.85434100 	0.10784700 
732.50 	2.85267400 	0.10731300 
735.00 	2.85102700 	0.10678500 
737.50 	2.84939900 	0.10626400 
740.00 	2.84778900 	0.10575000 
742.50 	2.84619800 	0.10524200 
745.00 	2.84462500 	0.10473900 
747.50 	2.84306900 	0.10424400 
750.00 	2.84153100 	0.10375400 
752.50 	2.84001000 	0.10326900 
755.00 	2.83850600 	0.10279000 
757.50 	2.83701800 	0.10231600 
760.00 	2.83554700 	0.10184900 
762.50 	2.83409200 	0.10138600 
765.00 	2.83265200 	0.10092900 
767.50 	2.83122800 	0.10047800 
770.00 	2.82982000 	0.10003100 
772.50 	2.82842600 	0.09958900 
775.00 	2.82704800 	0.09915200 
777.50 	2.82568400 	0.09872100 
780.00 	2.82433500 	0.09829300 
782.50 	2.82299900 	0.09787000 
785.00 	2.82167800 	0.09745300 
787.50 	2.82037100 	0.09703900 
790.00 	2.81907700 	0.09663100 
792.50 	2.81779600 	0.09622600 
795.00 	2.81653000 	0.09582600 
797.50 	2.81527600 	0.09542900 
800.00 	2.81403400 	0.09503800 
802.50 	2.81280600 	0.09465000 
805.00 	2.81158900 	0.09426700 
807.50 	2.81038500 	0.09388700 
810.00 	2.80919300 	0.09351100 
812.50 	2.80801400 	0.09313900 
815.00 	2.80684500 	0.09277100 
817.50 	2.80568900 	0.09240700 
820.00 	2.80454400 	0.09204600 
822.50 	2.80341100 	0.09168900 
825.00 	2.80228700 	0.09133500 
827.50 	2.80117500 	0.09098500 
830.00 	2.80007400 	0.09063800 
832.50 	2.79898400 	0.09029500 
835.00 	2.79790400 	0.08995600 
837.50 	2.79683400 	0.08961900 
840.00 	2.79577500 	0.08928500 
842.50 	2.79472500 	0.08895500 
845.00 	2.79368600 	0.08862900 
847.50 	2.79265600 	0.08830500 
850.00 	2.79163700 	0.08798400 
852.50 	2.79062700 	0.08766600 
855.00 	2.78962700 	0.08735100 
857.50 	2.78863500 	0.08704000 
860.00 	2.78765300 	0.08673000 
862.50 	2.78667900 	0.08642500 
865.00 	2.78571400 	0.08612100 
867.50 	2.78475900 	0.08582100 
870.00 	2.78381200 	0.08552300 
872.50 	2.78287500 	0.08522800 
875.00 	2.78194500 	0.08493600 
877.50 	2.78102400 	0.08464600 
880.00 	2.78011000 	0.08435800 
882.50 	2.77920600 	0.08407400 
885.00 	2.77830900 	0.08379200 
887.50 	2.77742000 	0.08351100 
890.00 	2.77653900 	0.08323400 
892.50 	2.77566600 	0.08296000 
895.00 	2.77480100 	0.08268700 
897.50 	2.77394200 	0.08241600 
900.00 	2.77309200 	0.08214900 
902.50 	2.77224900 	0.08188300 
905.00 	2.77141400 	0.08162000 
907.50 	2.77058400 	0.08135900 
910.00 	2.76976300 	0.08110100 
912.50 	2.76894800 	0.08084400 
915.00 	2.76814100 	0.08059000 
917.50 	2.76734100 	0.08033700 
920.00 	2.76654600 	0.08008700 
922.50 	2.76576000 	0.07983900 
925.00 	2.76497900 	0.07959200 
927.50 	2.76420500 	0.07934800 
930.00 	2.76343800 	0.07910600 
932.50 	2.76267700 	0.07886600 
935.00 	2.76192200 	0.07862700 
937.50 	2.76117300 	0.07839100 
940.00 	2.76043100 	0.07815600 
942.50 	2.75969400 	0.07792300 
945.00 	2.75896500 	0.07769200 
947.50 	2.75824000 	0.07746300 
950.00 	2.75752100 	0.07723700 
952.50 	2.75680800 	0.07701100 
955.00 	2.75610200 	0.07678700 
957.50 	2.75540000 	0.07656500 
960.00 	2.75470500 	0.07634500 
962.50 	2.75401500 	0.07612700 
965.00 	2.75333100 	0.07591000 
967.50 	2.75265100 	0.07569400 
970.00 	2.75197800 	0.07548000 
972.50 	2.75131000 	0.07526800 
975.00 	2.75064600 	0.07505800 
977.50 	2.74998800 	0.07484900 
980.00 	2.74933500 	0.07464200 
982.50 	2.74868700 	0.07443700 
985.00 	2.74804400 	0.07423200 
987.50 	2.74740700 	0.07402900 
990.00 	2.74677400 	0.07382900 
992.50 	2.74614600 	0.07362900 
995.00 	2.74552300 	0.07343000 
997.50 	2.74490400 	0.07323400 
1000.00 	2.74429100 	0.07303800 
