; From SOPRA S.A. http://www.sopra-sa.com/indices.htm
; Filename    Symbol               Range (nm)     Description
; AGAINP0     (Al0Ga1)0.5In0.5P   225     1000    Aluminum Gallium Indium Phosphide (0% Al)
; lambda/nm       n         k
225.00 	1.52314300 	2.82314400 
227.50 	1.57733300 	2.88535200 
230.00 	1.63863200 	2.94922700 
232.50 	1.70826300 	3.01409600 
235.00 	1.78755800 	3.07891500 
237.50 	1.87787200 	3.14215300 
240.00 	1.98044300 	3.20166200 
242.50 	2.09616900 	3.25458000 
245.00 	2.22524900 	3.29729700 
247.50 	2.36677100 	3.32559100 
250.00 	2.51824100 	3.33501700 
252.50 	2.67529200 	3.32161200 
255.00 	2.83175900 	3.28285000 
257.50 	2.98035900 	3.21857300 
260.00 	3.11394000 	3.13146700 
262.50 	3.22668900 	3.02692400 
265.00 	3.31548000 	2.91182600 
267.50 	3.37993300 	2.79329400 
270.00 	3.42201400 	2.67748000 
272.50 	3.44515200 	2.56890600 
275.00 	3.45335600 	2.47035700 
277.50 	3.45053700 	2.38311900 
280.00 	3.44012600 	2.30739000 
282.50 	3.42492700 	2.24265900 
285.00 	3.40711300 	2.18802400 
287.50 	3.38830300 	2.14241400 
290.00 	3.36965900 	2.10472700 
292.50 	3.35199200 	2.07391100 
295.00 	3.33584500 	2.04901400 
297.50 	3.32156600 	2.02918800 
300.00 	3.30936600 	2.01370000 
302.50 	3.29935400 	2.00192400 
305.00 	3.29157700 	1.99332800 
307.50 	3.28604000 	1.98746800 
310.00 	3.28272200 	1.98397400 
312.50 	3.28159100 	1.98254000 
315.00 	3.28261300 	1.98291300 
317.50 	3.28576100 	1.98489000 
320.00 	3.29102100 	1.98830200 
322.50 	3.29839900 	1.99301900 
325.00 	3.30791400 	1.99892500 
327.50 	3.31962500 	2.00592900 
330.00 	3.33362300 	2.01393300 
332.50 	3.34996800 	2.02298900 
335.00 	3.36862200 	2.03343700 
337.50 	3.39038300 	2.04397100 
340.00 	3.41516400 	2.05510500 
342.50 	3.44327500 	2.06660600 
345.00 	3.47505300 	2.07818400 
347.50 	3.51085900 	2.08944700 
350.00 	3.55105300 	2.09987100 
352.50 	3.59596000 	2.10877400 
355.00 	3.64582300 	2.11530500 
357.50 	3.70072700 	2.11843300 
360.00 	3.76052500 	2.11697900 
362.50 	3.82476000 	2.10966600 
365.00 	3.89259600 	2.09522000 
367.50 	3.96278300 	2.07250400 
370.00 	4.03368700 	2.04067000 
372.50 	4.10338100 	1.99932000 
375.00 	4.16980800 	1.94860600 
377.50 	4.23099000 	1.88927400 
380.00 	4.28522900 	1.82260000 
382.50 	4.33127700 	1.75025200 
385.00 	4.36842500 	1.67409500 
387.50 	4.39650000 	1.59600100 
390.00 	4.41577500 	1.51774600 
392.50 	4.42691400 	1.44076600 
395.00 	4.43079000 	1.36621000 
397.50 	4.42839200 	1.29490800 
400.00 	4.42072300 	1.22739400 
402.50 	4.40874400 	1.16396500 
405.00 	4.39332900 	1.10472500 
407.50 	4.37524300 	1.04963600 
410.00 	4.35514400 	0.99856400 
412.50 	4.33358100 	0.95131200 
415.00 	4.31101000 	0.90764600 
417.50 	4.28779700 	0.86731500 
420.00 	4.26424000 	0.83006300 
422.50 	4.24057000 	0.79564100 
425.00 	4.21697400 	0.76381200 
427.50 	4.19359300 	0.73435000 
430.00 	4.17053500 	0.70704900 
432.50 	4.14788200 	0.68171600 
435.00 	4.12572100 	0.65819000 
437.50 	4.10384000 	0.63620400 
440.00 	4.08217400 	0.61557500 
442.50 	4.06163000 	0.59655300 
445.00 	4.04161000 	0.57875600 
447.50 	4.02215600 	0.56209500 
450.00 	4.00326300 	0.54647100 
452.50 	3.98492400 	0.53179700 
455.00 	3.96713800 	0.51800100 
457.50 	3.94989000 	0.50500800 
460.00 	3.93316500 	0.49275400 
462.50 	3.91695000 	0.48118000 
465.00 	3.90123100 	0.47023300 
467.50 	3.88599200 	0.45986600 
470.00 	3.87121800 	0.45003400 
472.50 	3.85689400 	0.44069900 
475.00 	3.84300500 	0.43182400 
477.50 	3.82953500 	0.42337500 
480.00 	3.81647100 	0.41532300 
482.50 	3.80379700 	0.40763900 
485.00 	3.79150000 	0.40029800 
487.50 	3.77956700 	0.39327800 
490.00 	3.76798500 	0.38655600 
492.50 	3.75674100 	0.38011300 
495.00 	3.74582200 	0.37392900 
497.50 	3.73521700 	0.36798900 
500.00 	3.72491700 	0.36227700 
502.50 	3.71490800 	0.35677900 
505.00 	3.70518100 	0.35148100 
507.50 	3.69572600 	0.34636900 
510.00 	3.68653400 	0.34143300 
512.50 	3.67759500 	0.33666300 
515.00 	3.66890000 	0.33204800 
517.50 	3.66044100 	0.32757700 
520.00 	3.65221200 	0.32324400 
522.50 	3.64420300 	0.31904000 
525.00 	3.63640700 	0.31495600 
527.50 	3.62881700 	0.31098600 
530.00 	3.62142600 	0.30712300 
532.50 	3.61422800 	0.30336000 
535.00 	3.60721500 	0.29969100 
537.50 	3.60038300 	0.29611000 
540.00 	3.59372500 	0.29261200 
542.50 	3.58723500 	0.28919200 
545.00 	3.58090800 	0.28584500 
547.50 	3.57474000 	0.28256700 
550.00 	3.56872500 	0.27935200 
552.50 	3.56285600 	0.27619700 
555.00 	3.55713000 	0.27309700 
557.50 	3.55154400 	0.27004900 
560.00 	3.54609100 	0.26704900 
562.50 	3.54076700 	0.26409300 
565.00 	3.53556900 	0.26117800 
567.50 	3.53049300 	0.25830100 
570.00 	3.52553400 	0.25545900 
572.50 	3.52068900 	0.25264700 
575.00 	3.51595200 	0.24986400 
577.50 	3.51132100 	0.24710500 
580.00 	3.50679300 	0.24436900 
582.50 	3.50236300 	0.24165300 
585.00 	3.49802800 	0.23895200 
587.50 	3.49378400 	0.23626500 
590.00 	3.48962800 	0.23359000 
592.50 	3.48555500 	0.23092300 
595.00 	3.48156300 	0.22826100 
597.50 	3.47764700 	0.22560200 
600.00 	3.47380400 	0.22294300 
602.50 	3.47003000 	0.22028200 
605.00 	3.46632000 	0.21761500 
607.50 	3.46267000 	0.21494000 
610.00 	3.45907600 	0.21225300 
612.50 	3.45553400 	0.20955200 
615.00 	3.45203600 	0.20683600 
617.50 	3.44857800 	0.20410000 
620.00 	3.44515500 	0.20134200 
622.50 	3.44175800 	0.19856000 
625.00 	3.43838100 	0.19575200 
627.50 	3.43501500 	0.19291600 
630.00 	3.43165100 	0.19005200 
632.50 	3.42827800 	0.18715900 
635.00 	3.42488500 	0.18423800 
637.50 	3.42145900 	0.18129200 
640.00 	3.41798700 	0.17832900 
642.50 	3.41445300 	0.17535800 
645.00 	3.41084600 	0.17239100 
647.50 	3.40715500 	0.16944500 
650.00 	3.40337200 	0.16654600 
652.50 	3.39949800 	0.16371600 
655.00 	3.39553900 	0.16098200 
657.50 	3.39151100 	0.15836700 
660.00 	3.38743400 	0.15588700 
662.50 	3.38333400 	0.15355200 
665.00 	3.37923400 	0.15136400 
667.50 	3.37515700 	0.14931700 
670.00 	3.37112000 	0.14740300 
672.50 	3.36713600 	0.14561000 
675.00 	3.36321400 	0.14392700 
677.50 	3.35936100 	0.14234100 
680.00 	3.35557900 	0.14084100 
682.50 	3.35186900 	0.13941800 
685.00 	3.34823100 	0.13806300 
687.50 	3.34466600 	0.13676800 
690.00 	3.34117100 	0.13552800 
692.50 	3.33774300 	0.13433600 
695.00 	3.33438300 	0.13318800 
697.50 	3.33108700 	0.13208000 
700.00 	3.32785300 	0.13100900 
702.50 	3.32467900 	0.12997100 
705.00 	3.32156300 	0.12896400 
707.50 	3.31850400 	0.12798500 
710.00 	3.31549700 	0.12703300 
712.50 	3.31254400 	0.12610500 
715.00 	3.30964200 	0.12520000 
717.50 	3.30678900 	0.12431700 
720.00 	3.30398300 	0.12345400 
722.50 	3.30122400 	0.12261000 
725.00 	3.29851000 	0.12178500 
727.50 	3.29583800 	0.12097600 
730.00 	3.29320800 	0.12018400 
732.50 	3.29062000 	0.11940800 
735.00 	3.28807200 	0.11864700 
737.50 	3.28556200 	0.11790000 
740.00 	3.28308900 	0.11716700 
742.50 	3.28065300 	0.11644700 
745.00 	3.27825300 	0.11573900 
747.50 	3.27588700 	0.11504400 
750.00 	3.27355500 	0.11436000 
752.50 	3.27125600 	0.11368900 
755.00 	3.26899000 	0.11302700 
757.50 	3.26675500 	0.11237600 
760.00 	3.26455100 	0.11173600 
762.50 	3.26237700 	0.11110600 
765.00 	3.26023200 	0.11048400 
767.50 	3.25811600 	0.10987300 
770.00 	3.25602700 	0.10927100 
772.50 	3.25396600 	0.10867600 
775.00 	3.25193200 	0.10809100 
777.50 	3.24992300 	0.10751400 
780.00 	3.24794200 	0.10694600 
782.50 	3.24598500 	0.10638400 
785.00 	3.24405300 	0.10583100 
787.50 	3.24214500 	0.10528600 
790.00 	3.24026100 	0.10474800 
792.50 	3.23840000 	0.10421700 
795.00 	3.23656200 	0.10369200 
797.50 	3.23474600 	0.10317500 
800.00 	3.23295200 	0.10266400 
802.50 	3.23117900 	0.10216000 
805.00 	3.22942800 	0.10166200 
807.50 	3.22769700 	0.10117100 
810.00 	3.22598700 	0.10068500 
812.50 	3.22429600 	0.10020600 
815.00 	3.22262500 	0.09973200 
817.50 	3.22097300 	0.09926300 
820.00 	3.21934100 	0.09880100 
822.50 	3.21772700 	0.09834400 
825.00 	3.21613100 	0.09789200 
827.50 	3.21455300 	0.09744600 
830.00 	3.21299300 	0.09700500 
832.50 	3.21145000 	0.09656800 
835.00 	3.20992400 	0.09613700 
837.50 	3.20841500 	0.09571100 
840.00 	3.20692100 	0.09528900 
842.50 	3.20544500 	0.09487200 
845.00 	3.20398400 	0.09446000 
847.50 	3.20253900 	0.09405200 
850.00 	3.20111000 	0.09364900 
852.50 	3.19969600 	0.09325000 
855.00 	3.19829600 	0.09285500 
857.50 	3.19691100 	0.09246500 
860.00 	3.19554100 	0.09207800 
862.50 	3.19418500 	0.09169600 
865.00 	3.19284300 	0.09131700 
867.50 	3.19151500 	0.09094300 
870.00 	3.19020000 	0.09057300 
872.50 	3.18890000 	0.09020600 
875.00 	3.18761200 	0.08984300 
877.50 	3.18633700 	0.08948300 
880.00 	3.18507500 	0.08912800 
882.50 	3.18382600 	0.08877500 
885.00 	3.18258900 	0.08842600 
887.50 	3.18136500 	0.08808100 
890.00 	3.18015200 	0.08773900 
892.50 	3.17895100 	0.08740100 
895.00 	3.17776200 	0.08706500 
897.50 	3.17658400 	0.08673300 
900.00 	3.17541700 	0.08640400 
902.50 	3.17426300 	0.08607800 
905.00 	3.17311900 	0.08575500 
907.50 	3.17198600 	0.08543500 
910.00 	3.17086300 	0.08511800 
912.50 	3.16975200 	0.08480500 
915.00 	3.16865000 	0.08449400 
917.50 	3.16756000 	0.08418600 
920.00 	3.16647900 	0.08388000 
922.50 	3.16540900 	0.08357800 
925.00 	3.16434900 	0.08327800 
927.50 	3.16329800 	0.08298100 
930.00 	3.16225700 	0.08268600 
932.50 	3.16122500 	0.08239500 
935.00 	3.16020300 	0.08210500 
937.50 	3.15919000 	0.08181900 
940.00 	3.15818600 	0.08153500 
942.50 	3.15719200 	0.08125300 
945.00 	3.15620700 	0.08097400 
947.50 	3.15522900 	0.08069700 
950.00 	3.15426100 	0.08042300 
952.50 	3.15330100 	0.08015000 
955.00 	3.15235000 	0.07988100 
957.50 	3.15140700 	0.07961300 
960.00 	3.15047200 	0.07934800 
962.50 	3.14954600 	0.07908400 
965.00 	3.14862700 	0.07882300 
967.50 	3.14771600 	0.07856500 
970.00 	3.14681300 	0.07830800 
972.50 	3.14591800 	0.07805300 
975.00 	3.14503100 	0.07780100 
977.50 	3.14415100 	0.07755000 
980.00 	3.14327900 	0.07730100 
982.50 	3.14241400 	0.07705500 
985.00 	3.14155700 	0.07681100 
987.50 	3.14070600 	0.07656900 
990.00 	3.13986400 	0.07632800 
992.50 	3.13902700 	0.07608900 
995.00 	3.13819700 	0.07585300 
997.50 	3.13737400 	0.07561800 
1000.00 	3.13655900 	0.07538400 
