;  Optical constants for Al.
; 
;   taken from:
;
;   'Handbook of Optical Constants of Solids', Ed. by Edward D. Palik,
;   Academic Press, Inc., 1985.
;   
;    Lambda (nm)            n            k
;-----------------------------------------
103.32	0.03280000	0.79100000
107.81	0.03310000	0.88300000
112.71	0.03560000	0.97800000
118.08	0.03960000	1.08000000
123.98	0.04420000	1.18000000
130.51	0.04950000	1.29000000
137.76	0.05570000	1.40000000
141.69	0.05920000	1.46000000
145.86	0.06300000	1.53000000
150.28	0.06710000	1.59000000
154.97	0.07160000	1.66000000
159.97	0.07650000	1.74000000
171.01	0.08800000	1.90000000
177.11	0.09460000	1.98000000
183.67	0.10200000	2.07000000
198.37	0.11900000	2.28000000
206.63	0.13000000	2.39000000
215.62	0.14100000	2.51000000
225.42	0.15500000	2.64000000
236.15	0.17200000	2.79000000
247.96	0.19000000	2.94000000
261.01	0.20900000	3.11000000
275.51	0.23300000	3.30000000
291.72	0.26100000	3.51000000
299.98	0.27600000	3.61000000
309.95	0.29400000	3.74000000
317.90	0.31000000	3.84000000
326.26	0.32600000	3.95000000
335.08	0.34400000	4.06000000
344.39	0.36400000	4.17000000
350.03	0.37500000	4.24000000
354.23	0.38500000	4.30000000
364.65	0.40700000	4.43000000
375.70	0.43200000	4.56000000
387.44	0.46000000	4.71000000
399.94	0.49000000	4.86000000
413.27	0.52300000	5.02000000
427.52	0.55800000	5.20000000
442.79	0.59800000	5.38000000
450.02	0.61800000	5.47000000
459.19	0.64400000	5.58000000
476.85	0.69500000	5.80000000
495.92	0.75500000	6.03000000
499.92	0.76900000	6.08000000
506.04	0.78900000	6.15000000
516.58	0.82600000	6.28000000
527.58	0.86700000	6.42000000
539.04	0.91200000	6.55000000
550.04	0.95800000	6.69000000
551.02	0.96300000	6.70000000
563.54	1.02000000	6.85000000
576.65	1.08000000	7.00000000
590.38	1.15000000	7.15000000
600.10	1.20000000	7.26000000
604.78	1.22000000	7.31000000
619.90	1.30000000	7.48000000
635.79	1.39000000	7.65000000
649.79	1.47000000	7.79000000
652.53	1.49000000	7.82000000
670.16	1.60000000	8.01000000
688.78	1.74000000	8.21000000
700.06	1.83000000	8.31000000
708.46	1.91000000	8.39000000
729.29	2.14000000	8.57000000
750.03	2.40000000	8.62000000
751.39	2.41000000	8.62000000
774.88	2.63000000	8.60000000
799.87	2.80000000	8.45000000
824.88	2.75000000	8.31000000
826.53	2.74000000	8.31000000
849.76	2.61000000	8.22000000
855.03	2.58000000	8.21000000
874.95	2.38000000	8.18000000
885.57	2.24000000	8.21000000
899.71	2.06000000	8.30000000
918.37	1.86000000	8.44000000
925.22	1.77000000	8.49000000
950.04	1.49000000	8.88000000
953.69	1.47000000	8.95000000
991.84	1.37000000	9.49000000
999.84	1.35000000	9.58000000
1033.17	1.26000000	10.00000000
1078.09	1.21000000	10.60000000
1127.09	1.20000000	11.20000000
1180.76	1.21000000	11.80000000
1200.19	1.21000000	12.00000000
1239.80	1.21000000	12.50000000
