; Refractive index spectrum for Al by Rakic
;
; A. D. Rakić, A. B. Djurišic, J. M. Elazar, and M. L. Majewski. Optical properties of metallic films for vertical-cavity optoelectronic devices, <a href="http://dx.doi.org/10.1364/AO.37.005271"><i>Appl. Opt.</i> <b>37</b>, 5271-5283 (1998)</a>
;
; Fit of the experimental data from several sources to Brendel-Bormann (BB) model
;
; lambda/nm    n     k
206.60 	0.122847 	2.287852 
210.90 	0.127663 	2.343802 
215.28 	0.132638 	2.400695 
219.75 	0.137780 	2.458565 
224.32 	0.143101 	2.517445 
228.99 	0.148612 	2.577370 
233.75 	0.154328 	2.638373 
238.61 	0.160264 	2.700489 
243.57 	0.166437 	2.763751 
248.63 	0.172867 	2.828194 
253.80 	0.179573 	2.893850 
259.08 	0.186579 	2.960752 
264.46 	0.193908 	3.028935 
269.96 	0.201586 	3.098429 
275.57 	0.209641 	3.169266 
281.30 	0.218103 	3.241478 
287.15 	0.227003 	3.315093 
293.12 	0.236375 	3.390142 
299.21 	0.246255 	3.466652 
305.43 	0.256681 	3.544649 
311.78 	0.267692 	3.624158 
318.27 	0.279331 	3.705203 
324.88 	0.291643 	3.787803 
331.64 	0.304675 	3.871976 
338.53 	0.318476 	3.957739 
345.57 	0.333098 	4.045101 
352.75 	0.348594 	4.134070 
360.09 	0.365019 	4.224649 
367.57 	0.382429 	4.316834 
375.21 	0.400882 	4.410616 
383.01 	0.420433 	4.505981 
390.98 	0.441138 	4.602904 
399.10 	0.463048 	4.701355 
407.40 	0.486212 	4.801296 
415.87 	0.510672 	4.902680 
424.52 	0.536459 	5.005454 
433.34 	0.563597 	5.109559 
442.35 	0.592094 	5.214932 
451.55 	0.621943 	5.321509 
460.93 	0.653122 	5.429228 
470.52 	0.685587 	5.538036 
480.30 	0.719278 	5.647892 
490.28 	0.754116 	5.758775 
500.48 	0.790008 	5.870693 
510.88 	0.826851 	5.983689 
521.50 	0.864538 	6.097851 
532.34 	0.902973 	6.213319 
543.41 	0.942082 	6.330296 
554.71 	0.981831 	6.449052 
566.24 	1.022254 	6.569933 
578.01 	1.063479 	6.693361 
590.03 	1.105773 	6.819837 
602.30 	1.149595 	6.949931 
614.82 	1.195662 	7.084265 
627.60 	1.245049 	7.223469 
640.65 	1.299315 	7.368103 
653.96 	1.360664 	7.518501 
667.56 	1.432139 	7.674479 
681.44 	1.517790 	7.834815 
695.60 	1.622666 	7.996354 
710.07 	1.752227 	8.152676 
724.83 	1.910521 	8.292598 
739.90 	2.096479 	8.399659 
755.28 	2.298904 	8.454777 
770.98 	2.493347 	8.443684 
787.01 	2.645617 	8.367043 
803.37 	2.723491 	8.246450 
820.07 	2.711037 	8.119921 
837.12 	2.615966 	8.027721 
854.52 	2.464781 	7.997282 
872.29 	2.289722 	8.036555 
890.42 	2.116798 	8.137837 
908.93 	1.961008 	8.286477 
927.83 	1.827896 	8.467966 
947.12 	1.717353 	8.671111 
966.81 	1.626805 	8.888372 
986.91 	1.553066 	9.115071 
1007.43 	1.493168 	9.348463 
1028.37 	1.444627 	9.587010 
1049.75 	1.405469 	9.829894 
1071.57 	1.374156 	10.076722 
1093.85 	1.349503 	10.327343 
1116.59 	1.330600 	10.581741 
1139.80 	1.316741 	10.839975 
1163.50 	1.307381 	11.102145 
1187.69 	1.302093 	11.368368 
1212.38 	1.300544 	11.638770 
1237.58 	1.302471 	11.913480 
1263.31 	1.307663 	12.192624 
1289.57 	1.315956 	12.476327 
1316.38 	1.327219 	12.764710 
1343.75 	1.341348 	13.057890 
1371.69 	1.358261 	13.355985 
1400.20 	1.377897 	13.659107 
1429.31 	1.400208 	13.967368 
1459.03 	1.425161 	14.280878 
1489.36 	1.452733 	14.599745 
1520.32 	1.482912 	14.924077 
1551.93 	1.515695 	15.253982 
1584.19 	1.551084 	15.589565 
1617.13 	1.589092 	15.930934 
1650.75 	1.629736 	16.278193 
1685.06 	1.673040 	16.631449 
1720.10 	1.719031 	16.990807 
1755.85 	1.767745 	17.356371 
1792.36 	1.819219 	17.728246 
1829.62 	1.873497 	18.106538 
1867.66 	1.930625 	18.491349 
1906.48 	1.990654 	18.882785 
1946.12 	2.053639 	19.280948 
1986.58 	2.119639 	19.685941 
2027.88 	2.188713 	20.097866 
