; From SOPRA S.A. http://www.sopra-sa.com/indices.htm
; Filename    Symbol               Range (nm)     Description
; ALAS152T    AlAs                275      987    Aluminum Arsenide (Temp: 152 C)
; lambda/nm       n         k
275.83	4.41710000	2.71930000
276.75	4.41330000	2.66220000
277.68	4.40750000	2.60880000
278.62	4.39750000	2.55760000
279.56	4.38120000	2.51220000
280.51	4.36190000	2.47390000
281.46	4.34110000	2.43780000
282.43	4.31860000	2.40480000
283.39	4.29840000	2.37810000
284.37	4.28190000	2.35460000
285.35	4.26670000	2.33510000
286.34	4.25010000	2.32470000
287.34	4.23080000	2.31960000
288.34	4.21500000	2.31360000
289.35	4.20690000	2.30770000
290.36	4.20280000	2.30350000
291.39	4.20220000	2.30130000
292.42	4.20670000	2.30100000
293.46	4.21460000	2.30120000
294.50	4.22500000	2.30080000
295.55	4.23760000	2.30240000
296.62	4.25210000	2.30510000
297.68	4.26960000	2.30500000
298.76	4.29100000	2.30380000
299.84	4.31720000	2.30400000
300.93	4.34840000	2.30500000
302.03	4.38330000	2.30520000
303.14	4.42260000	2.30450000
304.26	4.46530000	2.30110000
305.38	4.51030000	2.29190000
306.51	4.55690000	2.27790000
307.66	4.60280000	2.26020000
308.80	4.64830000	2.23860000
309.96	4.69560000	2.21430000
311.13	4.74560000	2.18560000
312.31	4.79550000	2.14890000
313.49	4.84110000	2.10500000
314.68	4.88530000	2.05850000
315.89	4.93280000	2.01180000
317.10	4.98140000	1.96040000
318.32	5.02620000	1.90110000
319.55	5.06520000	1.83690000
320.79	5.10190000	1.76740000
322.04	5.13470000	1.69000000
323.30	5.16460000	1.60390000
324.57	5.19080000	1.51220000
325.85	5.20020000	1.42200000
327.14	5.19000000	1.33770000
328.44	5.16720000	1.25830000
329.75	5.13220000	1.18250000
331.07	5.08510000	1.11200000
332.40	5.03240000	1.04850000
333.74	4.98060000	0.99028000
335.10	4.93280000	0.93512000
336.46	4.89340000	0.88243000
337.83	4.86140000	0.83419000
339.22	4.82630000	0.79224000
340.62	4.78850000	0.75444000
342.03	4.75300000	0.71823000
343.45	4.71830000	0.68493000
344.88	4.68460000	0.65613000
346.33	4.65240000	0.62957000
347.78	4.62050000	0.60228000
349.25	4.58990000	0.57521000
350.74	4.56080000	0.55118000
352.23	4.53110000	0.52993000
353.74	4.50070000	0.50917000
355.26	4.47140000	0.48807000
356.79	4.44350000	0.46866000
358.34	4.41600000	0.45272000
359.90	4.38940000	0.43965000
361.47	4.36330000	0.42751000
363.06	4.33870000	0.41342000
364.66	4.31660000	0.39748000
366.28	4.29590000	0.38152000
367.91	4.27490000	0.36618000
369.55	4.25370000	0.35149000
371.21	4.23320000	0.33747000
372.89	4.21300000	0.32561000
374.58	4.19320000	0.31526000
376.28	4.17470000	0.30438000
378.00	4.15750000	0.29364000
379.74	4.14100000	0.28256000
381.49	4.12510000	0.27040000
383.26	4.10890000	0.25741000
385.05	4.09310000	0.24451000
386.85	4.07740000	0.23162000
388.67	4.05940000	0.21810000
390.50	4.04090000	0.20585000
392.36	4.02490000	0.19408000
394.23	4.00970000	0.18091000
396.12	3.99160000	0.16782000
398.03	3.97200000	0.15612000
399.95	3.95430000	0.14532000
401.90	3.93580000	0.13474000
403.86	3.91620000	0.12472000
405.84	3.89770000	0.11592000
407.85	3.87930000	0.10771000
409.87	3.86210000	0.09917000
411.91	3.84650000	0.09041000
413.97	3.82900000	0.08165300
416.06	3.81020000	0.07356100
418.16	3.79220000	0.06653600
420.29	3.77390000	0.05995700
422.44	3.75600000	0.05378700
424.61	3.73920000	0.04788300
426.80	3.72250000	0.04205400
429.01	3.70580000	0.03683800
431.25	3.69060000	0.03202700
433.51	3.67650000	0.02681500
435.80	3.66130000	0.02160700
438.11	3.64460000	0.01695200
440.44	3.62720000	0.01222500
442.80	3.61090000	0.00717500
445.19	3.59430000	0.00274300
447.60	3.57560000	0.00043700
450.04	3.55800000	0.00000000
452.50	3.54270000	0.00000000
454.99	3.52920000	0.00000000
457.51	3.51700000	0.00000000
460.06	3.50460000	0.00000000
462.63	3.49190000	0.00000000
465.24	3.47880000	0.00000000
467.87	3.46540000	0.00000000
470.53	3.45310000	0.00000000
473.23	3.44190000	0.00000000
475.95	3.43180000	0.00000000
478.71	3.42270000	0.00000000
481.50	3.41310000	0.00000000
484.32	3.40300000	0.00000000
487.17	3.39220000	0.00000000
490.06	3.38100000	0.00000000
492.98	3.37160000	0.00000000
495.94	3.36310000	0.00000000
498.93	3.35330000	0.00000000
501.96	3.34440000	0.00000000
505.03	3.33720000	0.00000000
508.14	3.32870000	0.00000000
511.28	3.31880000	0.00000000
514.46	3.31050000	0.00000000
517.68	3.30330000	0.00000000
520.95	3.29460000	0.00000000
524.25	3.28610000	0.00000000
527.60	3.27920000	0.00000000
530.99	3.27330000	0.00000000
534.42	3.26590000	0.00000000
537.90	3.25800000	0.00000000
541.42	3.25090000	0.00000000
544.99	3.24320000	0.00000000
548.61	3.23560000	0.00000000
552.27	3.22890000	0.00000000
555.99	3.22310000	0.00000000
559.75	3.21810000	0.00000000
563.57	3.21180000	0.00000000
567.44	3.20390000	0.00000000
571.36	3.19780000	0.00000000
575.34	3.19320000	0.00000000
579.37	3.18720000	0.00000000
583.46	3.18050000	0.00000000
587.61	3.17550000	0.00000000
591.81	3.17060000	0.00000000
596.08	3.16500000	0.00000000
600.41	3.15870000	0.00000000
604.81	3.15250000	0.00000000
609.26	3.14720000	0.00000000
613.79	3.14110000	0.00000000
618.38	3.13520000	0.00000000
623.04	3.13010000	0.00000000
627.77	3.12580000	0.00000000
632.58	3.12160000	0.00000000
637.46	3.11670000	0.00000000
642.41	3.11190000	0.00000000
647.44	3.10720000	0.00000000
652.55	3.10320000	0.00000000
657.75	3.09930000	0.00000000
663.02	3.09480000	0.00000000
668.38	3.08970000	0.00000000
673.83	3.08380000	0.00000000
679.37	3.07870000	0.00000000
685.00	3.07520000	0.00000000
690.73	3.07170000	0.00000000
696.55	3.06690000	0.00000000
702.47	3.06280000	0.00000000
708.49	3.06020000	0.00000000
714.61	3.05630000	0.00000000
720.84	3.05090000	0.00000000
727.19	3.04700000	0.00000000
733.64	3.04400000	0.00000000
740.21	3.03950000	0.00000000
746.90	3.03590000	0.00000000
753.71	3.03300000	0.00000000
760.65	3.02870000	0.00000000
767.71	3.02450000	0.00000000
774.91	3.02100000	0.00000000
782.24	3.01820000	0.00000000
789.71	3.01560000	0.00000000
797.33	3.01230000	0.00000000
805.10	3.00900000	0.00000000
813.02	3.00580000	0.00000000
821.09	3.00340000	0.00000000
829.33	3.00020000	0.00000000
837.74	2.99640000	0.00000000
846.32	2.99410000	0.00000000
855.07	2.99180000	0.00000000
864.01	2.98890000	0.00000000
873.14	2.98600000	0.00000000
882.46	2.98240000	0.00000000
891.98	2.97820000	0.00000000
901.71	2.97540000	0.00000000
911.66	2.97410000	0.00000000
921.82	2.97210000	0.00000000
932.22	2.96950000	0.00000000
942.85	2.96690000	0.00000000
953.73	2.96430000	0.00000000
964.87	2.96110000	0.00000000
976.26	2.95790000	0.00000000
987.93	2.95610000	0.00000000
