; From SOPRA S.A. http://www.sopra-sa.com/indices.htm
; Filename    Symbol               Range (nm)     Description
; ALAS125T    AlAs                275      987    Aluminum Arsenide (Temp: 125 C)
; lambda/nm       n         k
275.83	4.41170000	2.63840000
276.75	4.40800000	2.58570000
277.68	4.39720000	2.53610000
278.62	4.37610000	2.49710000
279.56	4.35540000	2.46700000
280.51	4.34110000	2.43980000
281.46	4.32460000	2.41710000
282.43	4.30650000	2.39900000
283.39	4.28960000	2.38310000
284.37	4.27510000	2.36860000
285.35	4.26280000	2.35790000
286.34	4.24900000	2.34880000
287.34	4.23330000	2.34060000
288.34	4.21720000	2.33690000
289.35	4.20490000	2.33440000
290.36	4.19830000	2.33020000
291.39	4.19820000	2.32660000
292.42	4.20180000	2.32580000
293.46	4.20660000	2.32380000
294.50	4.21880000	2.32020000
295.55	4.23560000	2.32170000
296.62	4.25330000	2.32510000
297.68	4.27590000	2.32750000
298.76	4.30000000	2.33520000
299.84	4.32570000	2.34400000
300.93	4.35890000	2.34640000
302.03	4.39690000	2.34340000
303.14	4.43580000	2.33820000
304.26	4.47950000	2.32860000
305.38	4.52830000	2.31410000
306.51	4.57960000	2.29540000
307.66	4.63480000	2.27120000
308.80	4.68990000	2.24340000
309.96	4.74050000	2.21280000
311.13	4.79070000	2.17650000
312.31	4.84280000	2.13440000
313.49	4.89330000	2.08770000
314.68	4.94320000	2.03940000
315.89	4.99220000	1.99010000
317.10	5.03750000	1.93440000
318.32	5.08330000	1.86760000
319.55	5.13150000	1.79370000
320.79	5.17420000	1.71700000
322.04	5.20580000	1.63560000
323.30	5.22970000	1.54400000
324.57	5.24600000	1.44250000
325.85	5.24770000	1.34250000
327.14	5.22870000	1.25340000
328.44	5.18870000	1.17490000
329.75	5.13570000	1.10410000
331.07	5.07920000	1.04170000
332.40	5.02290000	0.99000000
333.74	4.96820000	0.94522000
335.10	4.91800000	0.90028000
336.46	4.87720000	0.85089000
337.83	4.84440000	0.79980000
339.22	4.81060000	0.75340000
340.62	4.77260000	0.71289000
342.03	4.73440000	0.67608000
343.45	4.69890000	0.64231000
344.88	4.66380000	0.61367000
346.33	4.62900000	0.59156000
347.78	4.59620000	0.57354000
349.25	4.56550000	0.55559000
350.74	4.53640000	0.53598000
352.23	4.50790000	0.51610000
353.74	4.47950000	0.49654000
355.26	4.45190000	0.47716000
356.79	4.42570000	0.45765000
358.34	4.40050000	0.43750000
359.90	4.37510000	0.41861000
361.47	4.34990000	0.40446000
363.06	4.32590000	0.39478000
364.66	4.30260000	0.38434000
366.28	4.28050000	0.37157000
367.91	4.25940000	0.35961000
369.55	4.23890000	0.34890000
371.21	4.21920000	0.33787000
372.89	4.19970000	0.32506000
374.58	4.18020000	0.31039000
376.28	4.16140000	0.29612000
378.00	4.14470000	0.28330000
379.74	4.12980000	0.27156000
381.49	4.11390000	0.25962000
383.26	4.09610000	0.24740000
385.05	4.07930000	0.23645000
386.85	4.06370000	0.22646000
388.67	4.04790000	0.21602000
390.50	4.03270000	0.20401000
392.36	4.01840000	0.19073000
394.23	4.00390000	0.17734000
396.12	3.98710000	0.16428000
398.03	3.96900000	0.15155000
399.95	3.95180000	0.13910000
401.90	3.93340000	0.12746000
403.86	3.91420000	0.11676000
405.84	3.89580000	0.10630000
407.85	3.87650000	0.09638900
409.87	3.85810000	0.08719600
411.91	3.84140000	0.07807600
413.97	3.82270000	0.06936600
416.06	3.80280000	0.06136800
418.16	3.78350000	0.05422100
420.29	3.76340000	0.04858300
422.44	3.74430000	0.04442100
424.61	3.72740000	0.04071200
426.80	3.71160000	0.03642900
429.01	3.69610000	0.03167500
431.25	3.68140000	0.02680900
433.51	3.66740000	0.02180800
435.80	3.65240000	0.01702500
438.11	3.63570000	0.01265000
440.44	3.61810000	0.00828700
442.80	3.60150000	0.00393100
445.19	3.58490000	0.00091200
447.60	3.56710000	0.00000000
450.04	3.55070000	0.00000000
452.50	3.53630000	0.00000000
454.99	3.52340000	0.00000000
457.51	3.51200000	0.00000000
460.06	3.50010000	0.00000000
462.63	3.48790000	0.00000000
465.24	3.47520000	0.00000000
467.87	3.46200000	0.00000000
470.53	3.45000000	0.00000000
473.23	3.43910000	0.00000000
475.95	3.42930000	0.00000000
478.71	3.42060000	0.00000000
481.50	3.41130000	0.00000000
484.32	3.40140000	0.00000000
487.17	3.39090000	0.00000000
490.06	3.37980000	0.00000000
492.98	3.37050000	0.00000000
495.94	3.36230000	0.00000000
498.93	3.35270000	0.00000000
501.96	3.34410000	0.00000000
505.03	3.33720000	0.00000000
508.14	3.32880000	0.00000000
511.28	3.31900000	0.00000000
514.46	3.31100000	0.00000000
517.68	3.30400000	0.00000000
520.95	3.29540000	0.00000000
524.25	3.28710000	0.00000000
527.60	3.28050000	0.00000000
530.99	3.27470000	0.00000000
534.42	3.26750000	0.00000000
537.90	3.25970000	0.00000000
541.42	3.25280000	0.00000000
544.99	3.24520000	0.00000000
548.61	3.23770000	0.00000000
552.27	3.23110000	0.00000000
555.99	3.22550000	0.00000000
559.75	3.22070000	0.00000000
563.57	3.21450000	0.00000000
567.44	3.20670000	0.00000000
571.36	3.20060000	0.00000000
575.34	3.19620000	0.00000000
579.37	3.19040000	0.00000000
583.46	3.18390000	0.00000000
587.61	3.17900000	0.00000000
591.81	3.17430000	0.00000000
596.08	3.16880000	0.00000000
600.41	3.16260000	0.00000000
604.81	3.15650000	0.00000000
609.26	3.15120000	0.00000000
613.79	3.14530000	0.00000000
618.38	3.13940000	0.00000000
623.04	3.13440000	0.00000000
627.77	3.13030000	0.00000000
632.58	3.12620000	0.00000000
637.46	3.12140000	0.00000000
642.41	3.11680000	0.00000000
647.44	3.11210000	0.00000000
652.55	3.10830000	0.00000000
657.75	3.10460000	0.00000000
663.02	3.10020000	0.00000000
668.38	3.09500000	0.00000000
673.83	3.08920000	0.00000000
679.37	3.08420000	0.00000000
685.00	3.08080000	0.00000000
690.73	3.07740000	0.00000000
696.55	3.07260000	0.00000000
702.47	3.06860000	0.00000000
708.49	3.06620000	0.00000000
714.61	3.06240000	0.00000000
720.84	3.05700000	0.00000000
727.19	3.05330000	0.00000000
733.64	3.05030000	0.00000000
740.21	3.04590000	0.00000000
746.90	3.04230000	0.00000000
753.71	3.03950000	0.00000000
760.65	3.03520000	0.00000000
767.71	3.03100000	0.00000000
774.91	3.02770000	0.00000000
782.24	3.02510000	0.00000000
789.71	3.02250000	0.00000000
797.33	3.01930000	0.00000000
805.10	3.01610000	0.00000000
813.02	3.01290000	0.00000000
821.09	3.01060000	0.00000000
829.33	3.00760000	0.00000000
837.74	3.00380000	0.00000000
846.32	3.00160000	0.00000000
855.07	2.99940000	0.00000000
864.01	2.99650000	0.00000000
873.14	2.99360000	0.00000000
882.46	2.99010000	0.00000000
891.98	2.98590000	0.00000000
901.71	2.98320000	0.00000000
911.66	2.98200000	0.00000000
921.82	2.98010000	0.00000000
932.22	2.97750000	0.00000000
942.85	2.97490000	0.00000000
953.73	2.97240000	0.00000000
964.87	2.96920000	0.00000000
976.26	2.96610000	0.00000000
987.93	2.96440000	0.00000000
