; From SOPRA S.A. http://www.sopra-sa.com/indices.htm
; Filename    Symbol               Range (nm)     Description
; ALAS602T    AlAs                275      987    Aluminum Arsenide (Temp: 602 C)
; lambda/nm       n         k
275.83	3.98510000	3.13650000
276.75	4.01490000	3.09240000
277.68	4.05080000	3.04410000
278.62	4.08520000	2.99600000
279.56	4.11240000	2.95020000
280.51	4.13660000	2.90390000
281.46	4.15870000	2.85870000
282.43	4.17610000	2.81580000
283.39	4.19360000	2.76920000
284.37	4.20860000	2.72140000
285.35	4.21660000	2.67760000
286.34	4.22180000	2.63560000
287.34	4.22350000	2.59380000
288.34	4.22240000	2.55350000
289.35	4.22400000	2.51470000
290.36	4.22780000	2.47750000
291.39	4.22900000	2.44300000
292.42	4.22740000	2.41230000
293.46	4.22710000	2.38240000
294.50	4.22810000	2.35250000
295.55	4.22690000	2.32550000
296.62	4.22440000	2.30190000
297.68	4.22210000	2.28060000
298.76	4.22140000	2.26010000
299.84	4.22420000	2.24110000
300.93	4.22800000	2.22470000
302.03	4.23100000	2.21030000
303.14	4.23370000	2.19550000
304.26	4.23690000	2.17860000
305.38	4.24260000	2.16150000
306.51	4.24860000	2.14600000
307.66	4.25550000	2.13020000
308.80	4.26510000	2.11280000
309.96	4.27510000	2.09710000
311.13	4.28550000	2.08420000
312.31	4.29670000	2.07170000
313.49	4.30810000	2.05850000
314.68	4.32080000	2.04450000
315.89	4.33580000	2.02890000
317.10	4.35180000	2.01380000
318.32	4.36850000	2.00070000
319.55	4.38620000	1.98710000
320.79	4.40470000	1.97020000
322.04	4.42470000	1.95110000
323.30	4.44700000	1.93090000
324.57	4.47060000	1.90870000
325.85	4.49250000	1.88330000
327.14	4.51140000	1.85490000
328.44	4.52770000	1.82450000
329.75	4.54160000	1.79230000
331.07	4.55450000	1.75930000
332.40	4.56660000	1.72610000
333.74	4.57850000	1.69040000
335.10	4.59390000	1.65270000
336.46	4.61300000	1.61550000
337.83	4.63290000	1.57780000
339.22	4.65080000	1.53730000
340.62	4.66570000	1.49500000
342.03	4.67790000	1.45210000
343.45	4.68870000	1.40830000
344.88	4.69790000	1.36370000
346.33	4.70440000	1.31890000
347.78	4.70770000	1.27300000
349.25	4.70850000	1.22640000
350.74	4.70720000	1.17950000
352.23	4.70330000	1.13210000
353.74	4.69560000	1.08500000
355.26	4.68460000	1.03930000
356.79	4.67140000	0.99526000
358.34	4.65690000	0.95305000
359.90	4.64150000	0.91341000
361.47	4.62460000	0.87613000
363.06	4.60620000	0.83965000
364.66	4.58680000	0.80466000
366.28	4.56650000	0.77139000
367.91	4.54520000	0.73924000
369.55	4.52300000	0.70841000
371.21	4.50070000	0.67881000
372.89	4.47880000	0.65096000
374.58	4.45700000	0.62515000
376.28	4.43540000	0.60101000
378.00	4.41410000	0.57709000
379.74	4.39290000	0.55296000
381.49	4.37170000	0.52976000
383.26	4.35060000	0.50735000
385.05	4.32930000	0.48556000
386.85	4.30800000	0.46446000
388.67	4.28670000	0.44369000
390.50	4.26590000	0.42408000
392.36	4.24540000	0.40649000
394.23	4.22500000	0.39011000
396.12	4.20490000	0.37434000
398.03	4.18500000	0.35948000
399.95	4.16560000	0.34552000
401.90	4.14640000	0.33246000
403.86	4.12740000	0.31989000
405.84	4.10870000	0.30675000
407.85	4.09050000	0.29265000
409.87	4.07290000	0.27915000
411.91	4.05580000	0.26736000
413.97	4.03890000	0.25612000
416.06	4.02260000	0.24512000
418.16	4.00680000	0.23482000
420.29	3.99130000	0.22491000
422.44	3.97550000	0.21477000
424.61	3.95950000	0.20385000
426.80	3.94340000	0.19306000
429.01	3.92790000	0.18335000
431.25	3.91350000	0.17417000
433.51	3.90050000	0.16505000
435.80	3.88750000	0.15595000
438.11	3.87210000	0.14700000
440.44	3.85490000	0.13828000
442.80	3.83810000	0.13043000
445.19	3.82240000	0.12415000
447.60	3.80650000	0.11849000
450.04	3.79140000	0.11271000
452.50	3.77720000	0.10675000
454.99	3.76340000	0.10060000
457.51	3.74990000	0.09493600
460.06	3.73600000	0.09042900
462.63	3.72260000	0.08681900
465.24	3.70990000	0.08294600
467.87	3.69720000	0.07808700
470.53	3.68490000	0.07250200
473.23	3.67240000	0.06672700
475.95	3.66010000	0.06159400
478.71	3.64880000	0.05715400
481.50	3.63720000	0.05252500
484.32	3.62500000	0.04781500
487.17	3.61210000	0.04335300
490.06	3.59850000	0.03907900
492.98	3.58600000	0.03522500
495.94	3.57420000	0.03212700
498.93	3.56190000	0.02948300
501.96	3.55050000	0.02654300
505.03	3.54030000	0.02355600
508.14	3.52930000	0.02095100
511.28	3.51750000	0.01833100
514.46	3.50690000	0.01538700
517.68	3.49680000	0.01240500
520.95	3.48530000	0.00960000
524.25	3.47400000	0.00694200
527.60	3.46360000	0.00394400
530.99	3.45290000	0.00111600
534.42	3.44070000	0.00000000
537.90	3.42880000	0.00000000
541.42	3.41850000	0.00000000
544.99	3.40810000	0.00000000
548.61	3.39820000	0.00000000
552.27	3.38910000	0.00000000
555.99	3.38080000	0.00000000
559.75	3.37340000	0.00000000
563.57	3.36510000	0.00000000
567.44	3.35580000	0.00000000
571.36	3.34790000	0.00000000
575.34	3.34130000	0.00000000
579.37	3.33370000	0.00000000
583.46	3.32580000	0.00000000
587.61	3.31910000	0.00000000
591.81	3.31260000	0.00000000
596.08	3.30580000	0.00000000
600.41	3.29840000	0.00000000
604.81	3.29120000	0.00000000
609.26	3.28470000	0.00000000
613.79	3.27780000	0.00000000
618.38	3.27100000	0.00000000
623.04	3.26480000	0.00000000
627.77	3.25930000	0.00000000
632.58	3.25390000	0.00000000
637.46	3.24820000	0.00000000
642.41	3.24250000	0.00000000
647.44	3.23690000	0.00000000
652.55	3.23200000	0.00000000
657.75	3.22710000	0.00000000
663.02	3.22170000	0.00000000
668.38	3.21600000	0.00000000
673.83	3.20970000	0.00000000
679.37	3.20410000	0.00000000
685.00	3.19980000	0.00000000
690.73	3.19550000	0.00000000
696.55	3.19010000	0.00000000
702.47	3.18530000	0.00000000
708.49	3.18180000	0.00000000
714.61	3.17720000	0.00000000
720.84	3.17160000	0.00000000
727.19	3.16720000	0.00000000
733.64	3.16350000	0.00000000
740.21	3.15860000	0.00000000
746.90	3.15450000	0.00000000
753.71	3.15090000	0.00000000
760.65	3.14630000	0.00000000
767.71	3.14170000	0.00000000
774.91	3.13780000	0.00000000
782.24	3.13450000	0.00000000
789.71	3.13120000	0.00000000
797.33	3.12750000	0.00000000
805.10	3.12380000	0.00000000
813.02	3.12020000	0.00000000
821.09	3.11710000	0.00000000
829.33	3.11360000	0.00000000
837.74	3.10960000	0.00000000
846.32	3.10670000	0.00000000
855.07	3.10390000	0.00000000
864.01	3.10060000	0.00000000
873.14	3.09740000	0.00000000
882.46	3.09370000	0.00000000
891.98	3.08940000	0.00000000
901.71	3.08630000	0.00000000
911.66	3.08440000	0.00000000
921.82	3.08190000	0.00000000
932.22	3.07900000	0.00000000
942.85	3.07610000	0.00000000
953.73	3.07320000	0.00000000
964.87	3.06990000	0.00000000
976.26	3.06660000	0.00000000
987.93	3.06440000	0.00000000
