; From SOPRA S.A. http://www.sopra-sa.com/indices.htm
; Filename    Symbol               Range (nm)     Description
; ALAS421T    AlAs                275      987    Aluminum Arsenide (Temp: 421 C)
; lambda/nm       n         k
275.83	4.19720000	3.02120000
276.75	4.21440000	2.96820000
277.68	4.23160000	2.91390000
278.62	4.24740000	2.86250000
279.56	4.25990000	2.81050000
280.51	4.26910000	2.75720000
281.46	4.27550000	2.70300000
282.43	4.28110000	2.65040000
283.39	4.28740000	2.60480000
284.37	4.29050000	2.56470000
285.35	4.28940000	2.52750000
286.34	4.28800000	2.49460000
287.34	4.28550000	2.46300000
288.34	4.28060000	2.43350000
289.35	4.27420000	2.41000000
290.36	4.26630000	2.39030000
291.39	4.25760000	2.37060000
292.42	4.25050000	2.35320000
293.46	4.24670000	2.33850000
294.50	4.24360000	2.32460000
295.55	4.23970000	2.31130000
296.62	4.23670000	2.29500000
297.68	4.23660000	2.27770000
298.76	4.24030000	2.26490000
299.84	4.24640000	2.25330000
300.93	4.25350000	2.24060000
302.03	4.26170000	2.23020000
303.14	4.27130000	2.22140000
304.26	4.28150000	2.21220000
305.38	4.29240000	2.20320000
306.51	4.30590000	2.19420000
307.66	4.32260000	2.18440000
308.80	4.34280000	2.17460000
309.96	4.36320000	2.16590000
311.13	4.38230000	2.15700000
312.31	4.40430000	2.14590000
313.49	4.43210000	2.13180000
314.68	4.46400000	2.11430000
315.89	4.49450000	2.09480000
317.10	4.52240000	2.07370000
318.32	4.55000000	2.04870000
319.55	4.57780000	2.01990000
320.79	4.60800000	1.99010000
322.04	4.63900000	1.95950000
323.30	4.67230000	1.92720000
324.57	4.70910000	1.89330000
325.85	4.74270000	1.85730000
327.14	4.76980000	1.81840000
328.44	4.78950000	1.77640000
329.75	4.80210000	1.72950000
331.07	4.81050000	1.67650000
332.40	4.81810000	1.62080000
333.74	4.82720000	1.56490000
335.10	4.83760000	1.50770000
336.46	4.85010000	1.44890000
337.83	4.86140000	1.39030000
339.22	4.86670000	1.33150000
340.62	4.86660000	1.27290000
342.03	4.86210000	1.21520000
343.45	4.85270000	1.15750000
344.88	4.83960000	1.10110000
346.33	4.82350000	1.04770000
347.78	4.80440000	0.99791000
349.25	4.78290000	0.95080000
350.74	4.76000000	0.90504000
352.23	4.73550000	0.86130000
353.74	4.70970000	0.82067000
355.26	4.68270000	0.78383000
356.79	4.65480000	0.75059000
358.34	4.62660000	0.71976000
359.90	4.59880000	0.69093000
361.47	4.57090000	0.66405000
363.06	4.54250000	0.63917000
364.66	4.51480000	0.61427000
366.28	4.48920000	0.58749000
367.91	4.46480000	0.56067000
369.55	4.44080000	0.53522000
371.21	4.41750000	0.51209000
372.89	4.39440000	0.49239000
374.58	4.37080000	0.47494000
376.28	4.34680000	0.45741000
378.00	4.32360000	0.43903000
379.74	4.30110000	0.42077000
381.49	4.27890000	0.40266000
383.26	4.25770000	0.38455000
385.05	4.23740000	0.36779000
386.85	4.21720000	0.35351000
388.67	4.19710000	0.34116000
390.50	4.17700000	0.32989000
392.36	4.15700000	0.31931000
394.23	4.13740000	0.30775000
396.12	4.11840000	0.29506000
398.03	4.09950000	0.28255000
399.95	4.08110000	0.27008000
401.90	4.06360000	0.25868000
403.86	4.04620000	0.24756000
405.84	4.02840000	0.23436000
407.85	4.01070000	0.22142000
409.87	3.99390000	0.21073000
411.91	3.97830000	0.19974000
413.97	3.96340000	0.18772000
416.06	3.94790000	0.17620000
418.16	3.93110000	0.16452000
420.29	3.91320000	0.15254000
422.44	3.89580000	0.14155000
424.61	3.88160000	0.13167000
426.80	3.87090000	0.12273000
429.01	3.86000000	0.11440000
431.25	3.84750000	0.10628000
433.51	3.83550000	0.09881100
435.80	3.82430000	0.09199600
438.11	3.81180000	0.08569300
440.44	3.79540000	0.08026100
442.80	3.77700000	0.07560400
445.19	3.75940000	0.07129700
447.60	3.74130000	0.06616100
450.04	3.72260000	0.06021200
452.50	3.70410000	0.05607800
454.99	3.68810000	0.05296700
457.51	3.67390000	0.04800000
460.06	3.65830000	0.04253200
462.63	3.64210000	0.03786800
465.24	3.62560000	0.03310400
467.87	3.60840000	0.02858700
470.53	3.59240000	0.02453300
473.23	3.57760000	0.02011200
475.95	3.56360000	0.01539500
478.71	3.55050000	0.01062600
481.50	3.53630000	0.00555200
484.32	3.52040000	0.00145500
487.17	3.50370000	0.00000000
490.06	3.48770000	0.00000000
492.98	3.47450000	0.00000000
495.94	3.46260000	0.00000000
498.93	3.44990000	0.00000000
501.96	3.43840000	0.00000000
505.03	3.42860000	0.00000000
508.14	3.41790000	0.00000000
511.28	3.40600000	0.00000000
514.46	3.39580000	0.00000000
517.68	3.38660000	0.00000000
520.95	3.37630000	0.00000000
524.25	3.36630000	0.00000000
527.60	3.35780000	0.00000000
530.99	3.35010000	0.00000000
534.42	3.34140000	0.00000000
537.90	3.33210000	0.00000000
541.42	3.32370000	0.00000000
544.99	3.31480000	0.00000000
548.61	3.30610000	0.00000000
552.27	3.29820000	0.00000000
555.99	3.29110000	0.00000000
559.75	3.28480000	0.00000000
563.57	3.27740000	0.00000000
567.44	3.26890000	0.00000000
571.36	3.26170000	0.00000000
575.34	3.25590000	0.00000000
579.37	3.24900000	0.00000000
583.46	3.24150000	0.00000000
587.61	3.23560000	0.00000000
591.81	3.22970000	0.00000000
596.08	3.22330000	0.00000000
600.41	3.21630000	0.00000000
604.81	3.20950000	0.00000000
609.26	3.20340000	0.00000000
613.79	3.19670000	0.00000000
618.38	3.19020000	0.00000000
623.04	3.18440000	0.00000000
627.77	3.17930000	0.00000000
632.58	3.17440000	0.00000000
637.46	3.16880000	0.00000000
642.41	3.16340000	0.00000000
647.44	3.15810000	0.00000000
652.55	3.15350000	0.00000000
657.75	3.14890000	0.00000000
663.02	3.14380000	0.00000000
668.38	3.13820000	0.00000000
673.83	3.13200000	0.00000000
679.37	3.12650000	0.00000000
685.00	3.12240000	0.00000000
690.73	3.11830000	0.00000000
696.55	3.11300000	0.00000000
702.47	3.10850000	0.00000000
708.49	3.10530000	0.00000000
714.61	3.10090000	0.00000000
720.84	3.09520000	0.00000000
727.19	3.09100000	0.00000000
733.64	3.08740000	0.00000000
740.21	3.08260000	0.00000000
746.90	3.07860000	0.00000000
753.71	3.07520000	0.00000000
760.65	3.07050000	0.00000000
767.71	3.06600000	0.00000000
774.91	3.06220000	0.00000000
782.24	3.05900000	0.00000000
789.71	3.05590000	0.00000000
797.33	3.05220000	0.00000000
805.10	3.04870000	0.00000000
813.02	3.04510000	0.00000000
821.09	3.04220000	0.00000000
829.33	3.03870000	0.00000000
837.74	3.03470000	0.00000000
846.32	3.03200000	0.00000000
855.07	3.02930000	0.00000000
864.01	3.02610000	0.00000000
873.14	3.02290000	0.00000000
882.46	3.01910000	0.00000000
891.98	3.01480000	0.00000000
901.71	3.01170000	0.00000000
911.66	3.01000000	0.00000000
921.82	3.00760000	0.00000000
932.22	3.00470000	0.00000000
942.85	3.00180000	0.00000000
953.73	2.99900000	0.00000000
964.87	2.99560000	0.00000000
976.26	2.99230000	0.00000000
987.93	2.99020000	0.00000000
