; From SOPRA S.A. http://www.sopra-sa.com/indices.htm
; Filename    Symbol               Range (nm)     Description
; ALAS527T    AlAs                275      987    Aluminum Arsenide (Temp: 527 C)
; lambda/nm       n         k
275.83	4.13040000	3.08790000
276.75	4.15520000	3.04750000
277.68	4.17570000	3.00330000
278.62	4.19620000	2.95000000
279.56	4.21070000	2.89330000
280.51	4.22020000	2.83820000
281.46	4.23230000	2.78290000
282.43	4.24280000	2.73190000
283.39	4.24870000	2.68810000
284.37	4.25520000	2.64630000
285.35	4.26290000	2.60330000
286.34	4.26810000	2.56260000
287.34	4.26860000	2.52470000
288.34	4.26370000	2.48640000
289.35	4.25460000	2.45020000
290.36	4.24460000	2.41620000
291.39	4.23760000	2.38430000
292.42	4.23360000	2.35890000
293.46	4.23040000	2.33950000
294.50	4.22880000	2.32370000
295.55	4.23090000	2.30840000
296.62	4.23590000	2.29150000
297.68	4.24010000	2.27390000
298.76	4.24180000	2.25480000
299.84	4.24210000	2.23330000
300.93	4.24300000	2.21170000
302.03	4.24550000	2.19360000
303.14	4.24800000	2.18050000
304.26	4.25000000	2.17110000
305.38	4.25450000	2.16270000
306.51	4.26360000	2.15380000
307.66	4.27730000	2.14340000
308.80	4.29290000	2.13120000
309.96	4.30810000	2.11760000
311.13	4.32380000	2.10350000
312.31	4.34050000	2.08900000
313.49	4.35690000	2.07420000
314.68	4.37310000	2.06000000
315.89	4.39070000	2.04500000
317.10	4.41100000	2.02750000
318.32	4.43280000	2.00830000
319.55	4.45300000	1.98920000
320.79	4.47310000	1.97040000
322.04	4.49640000	1.94980000
323.30	4.52290000	1.92740000
324.57	4.55120000	1.90300000
325.85	4.57800000	1.87520000
327.14	4.60100000	1.84500000
328.44	4.62060000	1.81240000
329.75	4.63750000	1.77570000
331.07	4.65140000	1.73580000
332.40	4.66210000	1.69620000
333.74	4.67360000	1.65640000
335.10	4.68910000	1.61360000
336.46	4.70750000	1.56960000
337.83	4.72670000	1.52450000
339.22	4.74320000	1.47690000
340.62	4.75510000	1.42790000
342.03	4.76330000	1.37800000
343.45	4.76940000	1.32680000
344.88	4.77260000	1.27490000
346.33	4.77160000	1.22400000
347.78	4.76620000	1.17390000
349.25	4.75760000	1.12410000
350.74	4.74670000	1.07480000
352.23	4.73300000	1.02650000
353.74	4.71680000	0.97994000
355.26	4.69860000	0.93602000
356.79	4.67950000	0.89511000
358.34	4.65990000	0.85614000
359.90	4.63920000	0.81840000
361.47	4.61670000	0.78282000
363.06	4.59300000	0.74974000
364.66	4.56930000	0.71833000
366.28	4.54550000	0.68812000
367.91	4.52170000	0.65961000
369.55	4.49910000	0.63260000
371.21	4.47760000	0.60618000
372.89	4.45570000	0.58060000
374.58	4.43340000	0.55577000
376.28	4.41060000	0.53179000
378.00	4.38760000	0.50947000
379.74	4.36470000	0.48860000
381.49	4.34150000	0.46900000
383.26	4.31840000	0.45050000
385.05	4.29630000	0.43244000
386.85	4.27520000	0.41444000
388.67	4.25470000	0.39700000
390.50	4.23470000	0.38070000
392.36	4.21490000	0.36529000
394.23	4.19490000	0.35100000
396.12	4.17490000	0.33752000
398.03	4.15540000	0.32416000
399.95	4.13610000	0.31115000
401.90	4.11720000	0.29791000
403.86	4.09880000	0.28457000
405.84	4.08080000	0.27209000
407.85	4.06310000	0.26123000
409.87	4.04590000	0.25123000
411.91	4.02900000	0.24033000
413.97	4.01210000	0.22933000
416.06	3.99580000	0.21964000
418.16	3.98010000	0.21072000
420.29	3.96410000	0.20200000
422.44	3.94760000	0.19262000
424.61	3.93080000	0.18221000
426.80	3.91510000	0.17226000
429.01	3.90160000	0.16304000
431.25	3.88970000	0.15360000
433.51	3.87730000	0.14409000
435.80	3.86070000	0.13523000
438.11	3.84000000	0.12742000
440.44	3.82000000	0.12078000
442.80	3.80360000	0.11533000
445.19	3.78900000	0.11071000
447.60	3.77460000	0.10612000
450.04	3.76100000	0.10055000
452.50	3.74770000	0.09398300
454.99	3.73420000	0.08753300
457.51	3.72110000	0.08218600
460.06	3.70810000	0.07787300
462.63	3.69570000	0.07366300
465.24	3.68340000	0.06859400
467.87	3.67070000	0.06265500
470.53	3.65800000	0.05577300
473.23	3.64450000	0.04885300
475.95	3.63110000	0.04353600
478.71	3.61890000	0.03863000
481.50	3.60610000	0.03352000
484.32	3.59230000	0.02912500
487.17	3.57830000	0.02553800
490.06	3.56430000	0.02220900
492.98	3.55190000	0.01847700
495.94	3.54000000	0.01473600
498.93	3.52680000	0.01125000
501.96	3.51420000	0.00759200
505.03	3.50210000	0.00372600
508.14	3.48790000	0.00089300
511.28	3.47270000	0.00000000
514.46	3.45980000	0.00000000
517.68	3.44860000	0.00000000
520.95	3.43680000	0.00000000
524.25	3.42540000	0.00000000
527.60	3.41550000	0.00000000
530.99	3.40670000	0.00000000
534.42	3.39690000	0.00000000
537.90	3.38680000	0.00000000
541.42	3.37750000	0.00000000
544.99	3.36790000	0.00000000
548.61	3.35850000	0.00000000
552.27	3.35000000	0.00000000
555.99	3.34220000	0.00000000
559.75	3.33520000	0.00000000
563.57	3.32710000	0.00000000
567.44	3.31800000	0.00000000
571.36	3.31030000	0.00000000
575.34	3.30400000	0.00000000
579.37	3.29660000	0.00000000
583.46	3.28880000	0.00000000
587.61	3.28220000	0.00000000
591.81	3.27580000	0.00000000
596.08	3.26890000	0.00000000
600.41	3.26170000	0.00000000
604.81	3.25450000	0.00000000
609.26	3.24800000	0.00000000
613.79	3.24110000	0.00000000
618.38	3.23430000	0.00000000
623.04	3.22820000	0.00000000
627.77	3.22270000	0.00000000
632.58	3.21740000	0.00000000
637.46	3.21150000	0.00000000
642.41	3.20580000	0.00000000
647.44	3.20020000	0.00000000
652.55	3.19530000	0.00000000
657.75	3.19040000	0.00000000
663.02	3.18500000	0.00000000
668.38	3.17920000	0.00000000
673.83	3.17280000	0.00000000
679.37	3.16720000	0.00000000
685.00	3.16270000	0.00000000
690.73	3.15830000	0.00000000
696.55	3.15290000	0.00000000
702.47	3.14810000	0.00000000
708.49	3.14460000	0.00000000
714.61	3.14000000	0.00000000
720.84	3.13430000	0.00000000
727.19	3.12980000	0.00000000
733.64	3.12600000	0.00000000
740.21	3.12100000	0.00000000
746.90	3.11680000	0.00000000
753.71	3.11310000	0.00000000
760.65	3.10840000	0.00000000
767.71	3.10370000	0.00000000
774.91	3.09970000	0.00000000
782.24	3.09630000	0.00000000
789.71	3.09300000	0.00000000
797.33	3.08910000	0.00000000
805.10	3.08540000	0.00000000
813.02	3.08170000	0.00000000
821.09	3.07860000	0.00000000
829.33	3.07500000	0.00000000
837.74	3.07090000	0.00000000
846.32	3.06800000	0.00000000
855.07	3.06510000	0.00000000
864.01	3.06170000	0.00000000
873.14	3.05840000	0.00000000
882.46	3.05450000	0.00000000
891.98	3.05020000	0.00000000
901.71	3.04700000	0.00000000
911.66	3.04500000	0.00000000
921.82	3.04250000	0.00000000
932.22	3.03940000	0.00000000
942.85	3.03650000	0.00000000
953.73	3.03350000	0.00000000
964.87	3.03010000	0.00000000
976.26	3.02670000	0.00000000
987.93	3.02450000	0.00000000
