; From SOPRA S.A. http://www.sopra-sa.com/indices.htm
; Filename    Symbol               Range (nm)     Description
; ALAS390T    AlAs                275      987    Aluminum Arsenide (Temp: 390 C)
; lambda/nm       n         k
275.83	4.25970000	2.98000000
276.75	4.26020000	2.93110000
277.68	4.26460000	2.88070000
278.62	4.27260000	2.82900000
279.56	4.28120000	2.77590000
280.51	4.29130000	2.72200000
281.46	4.30210000	2.67110000
282.43	4.30920000	2.62270000
283.39	4.31250000	2.57840000
284.37	4.31090000	2.54040000
285.35	4.30250000	2.50730000
286.34	4.28870000	2.47570000
287.34	4.27500000	2.44530000
288.34	4.26610000	2.41830000
289.35	4.26280000	2.39390000
290.36	4.26290000	2.37000000
291.39	4.26110000	2.34680000
292.42	4.25550000	2.32520000
293.46	4.25080000	2.30650000
294.50	4.24890000	2.29190000
295.55	4.24770000	2.27790000
296.62	4.24530000	2.26290000
297.68	4.24350000	2.25100000
298.76	4.24640000	2.24220000
299.84	4.25380000	2.23280000
300.93	4.26300000	2.22160000
302.03	4.27230000	2.21110000
303.14	4.28240000	2.20310000
304.26	4.29480000	2.19810000
305.38	4.31130000	2.19450000
306.51	4.33000000	2.18830000
307.66	4.34860000	2.17950000
308.80	4.36920000	2.17120000
309.96	4.39230000	2.16260000
311.13	4.41660000	2.15060000
312.31	4.44280000	2.13610000
313.49	4.47140000	2.12010000
314.68	4.50230000	2.10200000
315.89	4.53480000	2.08240000
317.10	4.56760000	2.06000000
318.32	4.59820000	2.03360000
319.55	4.62730000	2.00500000
320.79	4.65760000	1.97560000
322.04	4.69000000	1.94240000
323.30	4.72570000	1.90420000
324.57	4.76280000	1.86630000
325.85	4.79580000	1.82780000
327.14	4.82140000	1.78490000
328.44	4.84000000	1.73870000
329.75	4.85190000	1.68790000
331.07	4.85800000	1.63150000
332.40	4.86190000	1.57160000
333.74	4.86660000	1.50930000
335.10	4.87310000	1.44420000
336.46	4.88150000	1.38000000
337.83	4.88770000	1.31950000
339.22	4.88840000	1.25920000
340.62	4.88330000	1.19800000
342.03	4.87300000	1.13900000
343.45	4.85820000	1.08260000
344.88	4.83950000	1.02790000
346.33	4.81760000	0.97602000
347.78	4.79310000	0.92851000
349.25	4.76660000	0.88477000
350.74	4.73940000	0.84402000
352.23	4.71190000	0.80512000
353.74	4.68420000	0.76774000
355.26	4.65590000	0.73320000
356.79	4.62700000	0.70218000
358.34	4.59830000	0.67348000
359.90	4.57040000	0.64535000
361.47	4.54300000	0.61875000
363.06	4.51580000	0.59492000
364.66	4.48960000	0.57254000
366.28	4.46470000	0.54976000
367.91	4.44080000	0.52630000
369.55	4.41720000	0.50398000
371.21	4.39370000	0.48395000
372.89	4.37030000	0.46577000
374.58	4.34720000	0.44790000
376.28	4.32470000	0.43003000
378.00	4.30220000	0.41383000
379.74	4.28010000	0.39850000
381.49	4.25820000	0.38269000
383.26	4.23660000	0.36632000
385.05	4.21610000	0.34987000
386.85	4.19650000	0.33474000
388.67	4.17690000	0.32085000
390.50	4.15750000	0.30792000
392.36	4.13850000	0.29516000
394.23	4.11990000	0.28203000
396.12	4.10150000	0.26917000
398.03	4.08330000	0.25624000
399.95	4.06510000	0.24437000
401.90	4.04690000	0.23426000
403.86	4.02880000	0.22379000
405.84	4.01090000	0.21334000
407.85	3.99340000	0.20412000
409.87	3.97710000	0.19446000
411.91	3.96220000	0.18341000
413.97	3.94780000	0.17197000
416.06	3.93200000	0.16108000
418.16	3.91410000	0.15027000
420.29	3.89550000	0.13940000
422.44	3.87980000	0.12927000
424.61	3.86690000	0.11989000
426.80	3.85170000	0.11118000
429.01	3.83420000	0.10321000
431.25	3.81770000	0.09596400
433.51	3.80220000	0.08894300
435.80	3.78600000	0.08191200
438.11	3.76820000	0.07588500
440.44	3.75030000	0.07117700
442.80	3.73500000	0.06682600
445.19	3.72100000	0.06178100
447.60	3.70510000	0.05649500
450.04	3.68940000	0.05281000
452.50	3.67610000	0.04971800
454.99	3.66430000	0.04467700
457.51	3.65210000	0.03868500
460.06	3.63850000	0.03374000
462.63	3.62450000	0.02967500
465.24	3.61040000	0.02558600
467.87	3.59580000	0.02129000
470.53	3.58190000	0.01690700
473.23	3.56840000	0.01226600
475.95	3.55490000	0.00748900
478.71	3.54110000	0.00327500
481.50	3.52600000	0.00071300
484.32	3.51090000	0.00000000
487.17	3.49640000	0.00000000
490.06	3.48230000	0.00000000
492.98	3.47010000	0.00000000
495.94	3.45910000	0.00000000
498.93	3.44710000	0.00000000
501.96	3.43630000	0.00000000
505.03	3.42710000	0.00000000
508.14	3.41690000	0.00000000
511.28	3.40550000	0.00000000
514.46	3.39570000	0.00000000
517.68	3.38690000	0.00000000
520.95	3.37700000	0.00000000
524.25	3.36730000	0.00000000
527.60	3.35910000	0.00000000
530.99	3.35180000	0.00000000
534.42	3.34340000	0.00000000
537.90	3.33450000	0.00000000
541.42	3.32640000	0.00000000
544.99	3.31770000	0.00000000
548.61	3.30930000	0.00000000
552.27	3.30170000	0.00000000
555.99	3.29490000	0.00000000
559.75	3.28890000	0.00000000
563.57	3.28160000	0.00000000
567.44	3.27330000	0.00000000
571.36	3.26640000	0.00000000
575.34	3.26080000	0.00000000
579.37	3.25410000	0.00000000
583.46	3.24690000	0.00000000
587.61	3.24110000	0.00000000
591.81	3.23550000	0.00000000
596.08	3.22920000	0.00000000
600.41	3.22240000	0.00000000
604.81	3.21580000	0.00000000
609.26	3.20990000	0.00000000
613.79	3.20340000	0.00000000
618.38	3.19700000	0.00000000
623.04	3.19140000	0.00000000
627.77	3.18650000	0.00000000
632.58	3.18170000	0.00000000
637.46	3.17640000	0.00000000
642.41	3.17110000	0.00000000
647.44	3.16590000	0.00000000
652.55	3.16140000	0.00000000
657.75	3.15700000	0.00000000
663.02	3.15210000	0.00000000
668.38	3.14660000	0.00000000
673.83	3.14050000	0.00000000
679.37	3.13520000	0.00000000
685.00	3.13120000	0.00000000
690.73	3.12720000	0.00000000
696.55	3.12210000	0.00000000
702.47	3.11770000	0.00000000
708.49	3.11460000	0.00000000
714.61	3.11030000	0.00000000
720.84	3.10480000	0.00000000
727.19	3.10060000	0.00000000
733.64	3.09720000	0.00000000
740.21	3.09250000	0.00000000
746.90	3.08850000	0.00000000
753.71	3.08520000	0.00000000
760.65	3.08070000	0.00000000
767.71	3.07630000	0.00000000
774.91	3.07260000	0.00000000
782.24	3.06960000	0.00000000
789.71	3.06660000	0.00000000
797.33	3.06300000	0.00000000
805.10	3.05940000	0.00000000
813.02	3.05600000	0.00000000
821.09	3.05320000	0.00000000
829.33	3.04980000	0.00000000
837.74	3.04590000	0.00000000
846.32	3.04330000	0.00000000
855.07	3.04070000	0.00000000
864.01	3.03750000	0.00000000
873.14	3.03440000	0.00000000
882.46	3.03070000	0.00000000
891.98	3.02640000	0.00000000
901.71	3.02350000	0.00000000
911.66	3.02180000	0.00000000
921.82	3.01950000	0.00000000
932.22	3.01670000	0.00000000
942.85	3.01390000	0.00000000
953.73	3.01120000	0.00000000
964.87	3.00790000	0.00000000
976.26	3.00460000	0.00000000
987.93	3.00260000	0.00000000
