; From SOPRA S.A. http://www.sopra-sa.com/indices.htm
; Filename    Symbol               Range (nm)     Description
; ALAS499T    AlAs                275      987    Aluminum Arsenide (Temp: 499 C)
; lambda/nm       n         k
275.83	4.16360000	3.04360000
276.75	4.20000000	2.98900000
277.68	4.21930000	2.94040000
278.62	4.22860000	2.90090000
279.56	4.24170000	2.86030000
280.51	4.25060000	2.81600000
281.46	4.25470000	2.77070000
282.43	4.26320000	2.72410000
283.39	4.27060000	2.67850000
284.37	4.27400000	2.63620000
285.35	4.27250000	2.59640000
286.34	4.26540000	2.55850000
287.34	4.25920000	2.52510000
288.34	4.25520000	2.49190000
289.35	4.24800000	2.45730000
290.36	4.24030000	2.42560000
291.39	4.23900000	2.39420000
292.42	4.24200000	2.36340000
293.46	4.24240000	2.33700000
294.50	4.23730000	2.31400000
295.55	4.23070000	2.29380000
296.62	4.22780000	2.27540000
297.68	4.22870000	2.25590000
298.76	4.23050000	2.23830000
299.84	4.23230000	2.22510000
300.93	4.23520000	2.21220000
302.03	4.24070000	2.19850000
303.14	4.24830000	2.18690000
304.26	4.25710000	2.17710000
305.38	4.26660000	2.16820000
306.51	4.27850000	2.15930000
307.66	4.29150000	2.14830000
308.80	4.30380000	2.13480000
309.96	4.31780000	2.12060000
311.13	4.33360000	2.10580000
312.31	4.35060000	2.09040000
313.49	4.36970000	2.07510000
314.68	4.39050000	2.06010000
315.89	4.41370000	2.04550000
317.10	4.43870000	2.03040000
318.32	4.46200000	2.01320000
319.55	4.48400000	1.99390000
320.79	4.50780000	1.97090000
322.04	4.53330000	1.94480000
323.30	4.55850000	1.91750000
324.57	4.58420000	1.88860000
325.85	4.60830000	1.85800000
327.14	4.62760000	1.82630000
328.44	4.64450000	1.79310000
329.75	4.66040000	1.75610000
331.07	4.67500000	1.71480000
332.40	4.68940000	1.67160000
333.74	4.70590000	1.62660000
335.10	4.72250000	1.58040000
336.46	4.73890000	1.53340000
337.83	4.75630000	1.48450000
339.22	4.77050000	1.43360000
340.62	4.77940000	1.38220000
342.03	4.78510000	1.33020000
343.45	4.78800000	1.27670000
344.88	4.78650000	1.22320000
346.33	4.78020000	1.17160000
347.78	4.76990000	1.12150000
349.25	4.75660000	1.07240000
350.74	4.74070000	1.02410000
352.23	4.72230000	0.97743000
353.74	4.70210000	0.93265000
355.26	4.68170000	0.89013000
356.79	4.66120000	0.85006000
358.34	4.64010000	0.81209000
359.90	4.61760000	0.77674000
361.47	4.59430000	0.74396000
363.06	4.57100000	0.71322000
364.66	4.54760000	0.68388000
366.28	4.52370000	0.65594000
367.91	4.49920000	0.62994000
369.55	4.47550000	0.60511000
371.21	4.45260000	0.58101000
372.89	4.42950000	0.55765000
374.58	4.40640000	0.53481000
376.28	4.38400000	0.51305000
378.00	4.36210000	0.49263000
379.74	4.34010000	0.47307000
381.49	4.31810000	0.45421000
383.26	4.29650000	0.43614000
385.05	4.27530000	0.41871000
386.85	4.25440000	0.40221000
388.67	4.23350000	0.38622000
390.50	4.21320000	0.36975000
392.36	4.19390000	0.35305000
394.23	4.17500000	0.33795000
396.12	4.15640000	0.32496000
398.03	4.13780000	0.31204000
399.95	4.11930000	0.29878000
401.90	4.10100000	0.28579000
403.86	4.08270000	0.27333000
405.84	4.06450000	0.26106000
407.85	4.04660000	0.24816000
409.87	4.02960000	0.23530000
411.91	4.01350000	0.22345000
413.97	3.99780000	0.21314000
416.06	3.98270000	0.20426000
418.16	3.96760000	0.19614000
420.29	3.95160000	0.18856000
422.44	3.93440000	0.18100000
424.61	3.91740000	0.17289000
426.80	3.90250000	0.16359000
429.01	3.89000000	0.15329000
431.25	3.87910000	0.14326000
433.51	3.86790000	0.13407000
435.80	3.85420000	0.12533000
438.11	3.83810000	0.11648000
440.44	3.82070000	0.10819000
442.80	3.80470000	0.10125000
445.19	3.79020000	0.09497800
447.60	3.77510000	0.08853200
450.04	3.76000000	0.08151400
452.50	3.74480000	0.07426200
454.99	3.72920000	0.06806900
457.51	3.71430000	0.06376400
460.06	3.70020000	0.06085300
462.63	3.68680000	0.05806500
465.24	3.67380000	0.05496300
467.87	3.66100000	0.05139900
470.53	3.64920000	0.04668400
473.23	3.63740000	0.04099100
475.95	3.62530000	0.03529000
478.71	3.61310000	0.03054500
481.50	3.60040000	0.02684200
484.32	3.58790000	0.02376000
487.17	3.57540000	0.02049800
490.06	3.56220000	0.01659300
492.98	3.54990000	0.01280300
495.94	3.53840000	0.00931300
498.93	3.52530000	0.00523200
501.96	3.51150000	0.00145100
505.03	3.49860000	0.00000000
508.14	3.48550000	0.00000000
511.28	3.47240000	0.00000000
514.46	3.46120000	0.00000000
517.68	3.45110000	0.00000000
520.95	3.44020000	0.00000000
524.25	3.42970000	0.00000000
527.60	3.42060000	0.00000000
530.99	3.41250000	0.00000000
534.42	3.40340000	0.00000000
537.90	3.39390000	0.00000000
541.42	3.38520000	0.00000000
544.99	3.37610000	0.00000000
548.61	3.36730000	0.00000000
552.27	3.35920000	0.00000000
555.99	3.35200000	0.00000000
559.75	3.34560000	0.00000000
563.57	3.33800000	0.00000000
567.44	3.32930000	0.00000000
571.36	3.32210000	0.00000000
575.34	3.31630000	0.00000000
579.37	3.30940000	0.00000000
583.46	3.30200000	0.00000000
587.61	3.29590000	0.00000000
591.81	3.29000000	0.00000000
596.08	3.28360000	0.00000000
600.41	3.27660000	0.00000000
604.81	3.26990000	0.00000000
609.26	3.26380000	0.00000000
613.79	3.25720000	0.00000000
618.38	3.25070000	0.00000000
623.04	3.24500000	0.00000000
627.77	3.23990000	0.00000000
632.58	3.23500000	0.00000000
637.46	3.22950000	0.00000000
642.41	3.22420000	0.00000000
647.44	3.21880000	0.00000000
652.55	3.21430000	0.00000000
657.75	3.20980000	0.00000000
663.02	3.20480000	0.00000000
668.38	3.19920000	0.00000000
673.83	3.19320000	0.00000000
679.37	3.18780000	0.00000000
685.00	3.18370000	0.00000000
690.73	3.17970000	0.00000000
696.55	3.17450000	0.00000000
702.47	3.17000000	0.00000000
708.49	3.16690000	0.00000000
714.61	3.16250000	0.00000000
720.84	3.15700000	0.00000000
727.19	3.15280000	0.00000000
733.64	3.14930000	0.00000000
740.21	3.14460000	0.00000000
746.90	3.14060000	0.00000000
753.71	3.13730000	0.00000000
760.65	3.13280000	0.00000000
767.71	3.12840000	0.00000000
774.91	3.12460000	0.00000000
782.24	3.12150000	0.00000000
789.71	3.11850000	0.00000000
797.33	3.11490000	0.00000000
805.10	3.11140000	0.00000000
813.02	3.10790000	0.00000000
821.09	3.10510000	0.00000000
829.33	3.10180000	0.00000000
837.74	3.09790000	0.00000000
846.32	3.09520000	0.00000000
855.07	3.09260000	0.00000000
864.01	3.08940000	0.00000000
873.14	3.08630000	0.00000000
882.46	3.08270000	0.00000000
891.98	3.07850000	0.00000000
901.71	3.07550000	0.00000000
911.66	3.07380000	0.00000000
921.82	3.07150000	0.00000000
932.22	3.06870000	0.00000000
942.85	3.06590000	0.00000000
953.73	3.06320000	0.00000000
964.87	3.05990000	0.00000000
976.26	3.05670000	0.00000000
987.93	3.05470000	0.00000000
