; From SOPRA S.A. http://www.sopra-sa.com/indices.htm
; Filename    Symbol               Range (nm)     Description
; ALAS626T    AlAs                275      987    Aluminum Arsenide (Temp: 626 C)
; lambda/nm       n         k
275.83	3.93590000	3.09500000
276.75	3.96670000	3.04660000
277.68	4.00420000	3.00490000
278.62	4.04480000	2.96420000
279.56	4.07980000	2.92730000
280.51	4.11440000	2.89610000
281.46	4.14560000	2.86410000
282.43	4.17640000	2.82350000
283.39	4.19920000	2.77830000
284.37	4.20550000	2.73320000
285.35	4.20100000	2.68240000
286.34	4.18900000	2.63350000
287.34	4.18390000	2.58830000
288.34	4.18310000	2.53800000
289.35	4.17610000	2.49210000
290.36	4.17840000	2.45650000
291.39	4.19400000	2.42530000
292.42	4.20980000	2.40040000
293.46	4.21960000	2.38200000
294.50	4.22340000	2.36070000
295.55	4.22580000	2.33370000
296.62	4.22560000	2.31030000
297.68	4.22470000	2.29400000
298.76	4.22380000	2.27640000
299.84	4.21940000	2.25700000
300.93	4.21760000	2.23800000
302.03	4.21820000	2.21640000
303.14	4.21910000	2.19410000
304.26	4.22480000	2.17300000
305.38	4.23340000	2.14980000
306.51	4.23960000	2.12670000
307.66	4.24400000	2.11040000
308.80	4.25400000	2.09980000
309.96	4.27040000	2.09010000
311.13	4.28790000	2.08010000
312.31	4.30390000	2.06800000
313.49	4.31250000	2.05490000
314.68	4.31500000	2.04500000
315.89	4.31730000	2.03630000
317.10	4.31940000	2.02530000
318.32	4.32400000	2.01490000
319.55	4.33530000	2.00470000
320.79	4.35350000	1.98950000
322.04	4.37600000	1.96830000
323.30	4.40030000	1.94470000
324.57	4.42690000	1.92120000
325.85	4.45250000	1.89710000
327.14	4.47440000	1.87100000
328.44	4.49350000	1.84080000
329.75	4.51080000	1.80700000
331.07	4.53220000	1.77140000
332.40	4.55690000	1.73340000
333.74	4.57880000	1.69280000
335.10	4.59810000	1.65200000
336.46	4.61790000	1.61380000
337.83	4.63920000	1.57680000
339.22	4.65900000	1.53950000
340.62	4.67480000	1.50110000
342.03	4.68510000	1.46130000
343.45	4.69090000	1.42030000
344.88	4.69640000	1.37720000
346.33	4.70190000	1.33240000
347.78	4.70600000	1.28640000
349.25	4.70900000	1.24070000
350.74	4.71030000	1.19580000
352.23	4.70930000	1.14950000
353.74	4.70640000	1.10200000
355.26	4.70200000	1.05550000
356.79	4.69310000	1.01250000
358.34	4.67910000	0.97418000
359.90	4.66380000	0.93823000
361.47	4.64720000	0.90169000
363.06	4.62950000	0.86358000
364.66	4.61020000	0.82683000
366.28	4.58820000	0.79280000
367.91	4.56710000	0.75882000
369.55	4.54890000	0.72480000
371.21	4.53100000	0.69358000
372.89	4.51080000	0.66617000
374.58	4.48890000	0.64005000
376.28	4.46880000	0.61228000
378.00	4.45000000	0.58350000
379.74	4.43050000	0.55625000
381.49	4.40880000	0.53232000
383.26	4.38530000	0.51037000
385.05	4.36300000	0.48805000
386.85	4.34170000	0.46727000
388.67	4.31960000	0.44967000
390.50	4.29750000	0.43302000
392.36	4.27720000	0.41596000
394.23	4.25930000	0.39778000
396.12	4.24150000	0.37831000
398.03	4.22170000	0.36164000
399.95	4.20120000	0.35012000
401.90	4.18140000	0.33870000
403.86	4.16210000	0.32320000
405.84	4.14260000	0.30802000
407.85	4.12280000	0.29570000
409.87	4.10370000	0.28456000
411.91	4.08570000	0.27279000
413.97	4.06830000	0.25962000
416.06	4.05120000	0.24746000
418.16	4.03430000	0.23693000
420.29	4.01780000	0.22720000
422.44	4.00270000	0.21724000
424.61	3.98830000	0.20577000
426.80	3.97450000	0.19501000
429.01	3.96110000	0.18819000
431.25	3.94780000	0.18251000
433.51	3.93500000	0.17372000
435.80	3.92210000	0.16297000
438.11	3.90790000	0.15292000
440.44	3.89230000	0.14344000
442.80	3.87610000	0.13457000
445.19	3.85980000	0.12761000
447.60	3.84330000	0.12225000
450.04	3.82820000	0.11710000
452.50	3.81430000	0.11165000
454.99	3.80140000	0.10605000
457.51	3.78870000	0.09960300
460.06	3.77460000	0.09381600
462.63	3.76010000	0.08998600
465.24	3.74650000	0.08682400
467.87	3.73350000	0.08352600
470.53	3.72140000	0.07926400
473.23	3.70940000	0.07497400
475.95	3.69850000	0.07234800
478.71	3.69040000	0.06935200
481.50	3.68210000	0.06359300
484.32	3.67160000	0.05661000
487.17	3.65940000	0.05050600
490.06	3.64630000	0.04519000
492.98	3.63420000	0.03992100
495.94	3.62200000	0.03512200
498.93	3.60870000	0.03179400
501.96	3.59690000	0.02921400
505.03	3.58680000	0.02636400
508.14	3.57590000	0.02333400
511.28	3.56380000	0.02025000
514.46	3.55270000	0.01766000
517.68	3.54270000	0.01560400
520.95	3.53220000	0.01314800
524.25	3.52160000	0.01022600
527.60	3.51180000	0.00713200
530.99	3.50190000	0.00416600
534.42	3.49060000	0.00197700
537.90	3.47870000	0.00056900
541.42	3.46760000	0.00000000
544.99	3.45690000	0.00000000
548.61	3.44670000	0.00000000
552.27	3.43750000	0.00000000
555.99	3.42920000	0.00000000
559.75	3.42160000	0.00000000
563.57	3.41340000	0.00000000
567.44	3.40430000	0.00000000
571.36	3.39650000	0.00000000
575.34	3.38980000	0.00000000
579.37	3.38230000	0.00000000
583.46	3.37450000	0.00000000
587.61	3.36790000	0.00000000
591.81	3.36140000	0.00000000
596.08	3.35450000	0.00000000
600.41	3.34730000	0.00000000
604.81	3.34030000	0.00000000
609.26	3.33400000	0.00000000
613.79	3.32720000	0.00000000
618.38	3.32050000	0.00000000
623.04	3.31450000	0.00000000
627.77	3.30910000	0.00000000
632.58	3.30380000	0.00000000
637.46	3.29810000	0.00000000
642.41	3.29250000	0.00000000
647.44	3.28710000	0.00000000
652.55	3.28220000	0.00000000
657.75	3.27740000	0.00000000
663.02	3.27220000	0.00000000
668.38	3.26650000	0.00000000
673.83	3.26040000	0.00000000
679.37	3.25500000	0.00000000
685.00	3.25070000	0.00000000
690.73	3.24650000	0.00000000
696.55	3.24130000	0.00000000
702.47	3.23670000	0.00000000
708.49	3.23320000	0.00000000
714.61	3.22870000	0.00000000
720.84	3.22330000	0.00000000
727.19	3.21900000	0.00000000
733.64	3.21530000	0.00000000
740.21	3.21060000	0.00000000
746.90	3.20660000	0.00000000
753.71	3.20310000	0.00000000
760.65	3.19860000	0.00000000
767.71	3.19420000	0.00000000
774.91	3.19030000	0.00000000
782.24	3.18700000	0.00000000
789.71	3.18380000	0.00000000
797.33	3.18020000	0.00000000
805.10	3.17660000	0.00000000
813.02	3.17310000	0.00000000
821.09	3.17010000	0.00000000
829.33	3.16670000	0.00000000
837.74	3.16280000	0.00000000
846.32	3.16000000	0.00000000
855.07	3.15720000	0.00000000
864.01	3.15400000	0.00000000
873.14	3.15090000	0.00000000
882.46	3.14730000	0.00000000
891.98	3.14330000	0.00000000
901.71	3.14030000	0.00000000
911.66	3.13830000	0.00000000
921.82	3.13590000	0.00000000
932.22	3.13300000	0.00000000
942.85	3.13020000	0.00000000
953.73	3.12750000	0.00000000
964.87	3.12420000	0.00000000
976.26	3.12110000	0.00000000
987.93	3.11890000	0.00000000
