; From SOPRA S.A. http://www.sopra-sa.com/indices.htm
; Filename    Symbol               Range (nm)     Description
; ALAS204T    AlAs                275      987    Aluminum Arsenide (Temp: 204 C)
; lambda/nm       n         k
275.83	4.36890000	2.74370000
276.75	4.36190000	2.69480000
277.68	4.35380000	2.64440000
278.62	4.34950000	2.58860000
279.56	4.34630000	2.53560000
280.51	4.34150000	2.49180000
281.46	4.33180000	2.45590000
282.43	4.31830000	2.42640000
283.39	4.30310000	2.40110000
284.37	4.28840000	2.37790000
285.35	4.27530000	2.35920000
286.34	4.25890000	2.34860000
287.34	4.24160000	2.33980000
288.34	4.22860000	2.32900000
289.35	4.22130000	2.31960000
290.36	4.21860000	2.31100000
291.39	4.21810000	2.30300000
292.42	4.21930000	2.29640000
293.46	4.22260000	2.29040000
294.50	4.23030000	2.28480000
295.55	4.24170000	2.27990000
296.62	4.25380000	2.27590000
297.68	4.26690000	2.27380000
298.76	4.28040000	2.27330000
299.84	4.29650000	2.27170000
300.93	4.31840000	2.26830000
302.03	4.34430000	2.26570000
303.14	4.37200000	2.26380000
304.26	4.40360000	2.26170000
305.38	4.44040000	2.25770000
306.51	4.48080000	2.24820000
307.66	4.52190000	2.23440000
308.80	4.56400000	2.21810000
309.96	4.60780000	2.19760000
311.13	4.65260000	2.17260000
312.31	4.69830000	2.14230000
313.49	4.74380000	2.10700000
314.68	4.78690000	2.06930000
315.89	4.82630000	2.03070000
317.10	4.86360000	1.98860000
318.32	4.90180000	1.93900000
319.55	4.94250000	1.88520000
320.79	4.98550000	1.82900000
322.04	5.02990000	1.76660000
323.30	5.07410000	1.69730000
324.57	5.11140000	1.62490000
325.85	5.13410000	1.55170000
327.14	5.13980000	1.47820000
328.44	5.12910000	1.40380000
329.75	5.10460000	1.32790000
331.07	5.07150000	1.25240000
332.40	5.03470000	1.18130000
333.74	4.99690000	1.11390000
335.10	4.96280000	1.04810000
336.46	4.93460000	0.98560000
337.83	4.90520000	0.92904000
339.22	4.87080000	0.87808000
340.62	4.83500000	0.83108000
342.03	4.79980000	0.78713000
343.45	4.76500000	0.74555000
344.88	4.73070000	0.70715000
346.33	4.69640000	0.67316000
347.78	4.66240000	0.64337000
349.25	4.63010000	0.61725000
350.74	4.59960000	0.59340000
352.23	4.57030000	0.56982000
353.74	4.54100000	0.54728000
355.26	4.51160000	0.52739000
356.79	4.48350000	0.50920000
358.34	4.45730000	0.49081000
359.90	4.43170000	0.47251000
361.47	4.40540000	0.45531000
363.06	4.37960000	0.43916000
364.66	4.35510000	0.42397000
366.28	4.33110000	0.40899000
367.91	4.30830000	0.39285000
369.55	4.28660000	0.37614000
371.21	4.26490000	0.36108000
372.89	4.24350000	0.34808000
374.58	4.22290000	0.33630000
376.28	4.20280000	0.32465000
378.00	4.18240000	0.31216000
379.74	4.16200000	0.29975000
381.49	4.14240000	0.28815000
383.26	4.12330000	0.27661000
385.05	4.10550000	0.26523000
386.85	4.08900000	0.25443000
388.67	4.07220000	0.24239000
390.50	4.05490000	0.22900000
392.36	4.03820000	0.21662000
394.23	4.02200000	0.20402000
396.12	4.00510000	0.18953000
398.03	3.98690000	0.17511000
399.95	3.96740000	0.16262000
401.90	3.94770000	0.15118000
403.86	3.93020000	0.13945000
405.84	3.91680000	0.12809000
407.85	3.90420000	0.11795000
409.87	3.88860000	0.10866000
411.91	3.87140000	0.09994900
413.97	3.85260000	0.09193300
416.06	3.83310000	0.08457900
418.16	3.81480000	0.07806100
420.29	3.79620000	0.07237400
422.44	3.77840000	0.06702000
424.61	3.76210000	0.06198300
426.80	3.74670000	0.05696300
429.01	3.73140000	0.05070000
431.25	3.71600000	0.04488600
433.51	3.70220000	0.04062400
435.80	3.68850000	0.03514600
438.11	3.67250000	0.02890000
440.44	3.65510000	0.02390900
442.80	3.63980000	0.01934900
445.19	3.62550000	0.01433600
447.60	3.60900000	0.00909000
450.04	3.59140000	0.00420700
452.50	3.57390000	0.00097000
454.99	3.55760000	0.00000000
457.51	3.54360000	0.00000000
460.06	3.53010000	0.00000000
462.63	3.51640000	0.00000000
465.24	3.50260000	0.00000000
467.87	3.48850000	0.00000000
470.53	3.47550000	0.00000000
473.23	3.46380000	0.00000000
475.95	3.45310000	0.00000000
478.71	3.44360000	0.00000000
481.50	3.43360000	0.00000000
484.32	3.42310000	0.00000000
487.17	3.41210000	0.00000000
490.06	3.40050000	0.00000000
492.98	3.39070000	0.00000000
495.94	3.38200000	0.00000000
498.93	3.37190000	0.00000000
501.96	3.36270000	0.00000000
505.03	3.35520000	0.00000000
508.14	3.34650000	0.00000000
511.28	3.33640000	0.00000000
514.46	3.32800000	0.00000000
517.68	3.32050000	0.00000000
520.95	3.31170000	0.00000000
524.25	3.30290000	0.00000000
527.60	3.29590000	0.00000000
530.99	3.28980000	0.00000000
534.42	3.28230000	0.00000000
537.90	3.27420000	0.00000000
541.42	3.26700000	0.00000000
544.99	3.25920000	0.00000000
548.61	3.25140000	0.00000000
552.27	3.24450000	0.00000000
555.99	3.23850000	0.00000000
559.75	3.23340000	0.00000000
563.57	3.22690000	0.00000000
567.44	3.21900000	0.00000000
571.36	3.21270000	0.00000000
575.34	3.20800000	0.00000000
579.37	3.20200000	0.00000000
583.46	3.19520000	0.00000000
587.61	3.19010000	0.00000000
591.81	3.18500000	0.00000000
596.08	3.17930000	0.00000000
600.41	3.17290000	0.00000000
604.81	3.16660000	0.00000000
609.26	3.16120000	0.00000000
613.79	3.15510000	0.00000000
618.38	3.14910000	0.00000000
623.04	3.14390000	0.00000000
627.77	3.13950000	0.00000000
632.58	3.13530000	0.00000000
637.46	3.13030000	0.00000000
642.41	3.12540000	0.00000000
647.44	3.12060000	0.00000000
652.55	3.11660000	0.00000000
657.75	3.11270000	0.00000000
663.02	3.10810000	0.00000000
668.38	3.10280000	0.00000000
673.83	3.09690000	0.00000000
679.37	3.09180000	0.00000000
685.00	3.08820000	0.00000000
690.73	3.08470000	0.00000000
696.55	3.07980000	0.00000000
702.47	3.07560000	0.00000000
708.49	3.07300000	0.00000000
714.61	3.06900000	0.00000000
720.84	3.06360000	0.00000000
727.19	3.05970000	0.00000000
733.64	3.05660000	0.00000000
740.21	3.05210000	0.00000000
746.90	3.04840000	0.00000000
753.71	3.04540000	0.00000000
760.65	3.04100000	0.00000000
767.71	3.03680000	0.00000000
774.91	3.03330000	0.00000000
782.24	3.03060000	0.00000000
789.71	3.02790000	0.00000000
797.33	3.02450000	0.00000000
805.10	3.02120000	0.00000000
813.02	3.01790000	0.00000000
821.09	3.01540000	0.00000000
829.33	3.01230000	0.00000000
837.74	3.00850000	0.00000000
846.32	3.00610000	0.00000000
855.07	3.00380000	0.00000000
864.01	3.00080000	0.00000000
873.14	2.99780000	0.00000000
882.46	2.99420000	0.00000000
891.98	2.99000000	0.00000000
901.71	2.98720000	0.00000000
911.66	2.98590000	0.00000000
921.82	2.98390000	0.00000000
932.22	2.98120000	0.00000000
942.85	2.97850000	0.00000000
953.73	2.97590000	0.00000000
964.87	2.97270000	0.00000000
976.26	2.96950000	0.00000000
987.93	2.96770000	0.00000000
