; From SOPRA S.A. http://www.sopra-sa.com/indices.htm
; Filename    Symbol               Range (nm)     Description
; ALAS469T    AlAs                275      987    Aluminum Arsenide (Temp: 469 C)
; lambda/nm       n         k
275.83	4.23160000	3.03200000
276.75	4.25480000	2.98030000
277.68	4.26860000	2.92680000
278.62	4.27550000	2.87420000
279.56	4.27930000	2.82660000
280.51	4.28110000	2.77940000
281.46	4.27890000	2.73120000
282.43	4.27420000	2.68410000
283.39	4.27080000	2.63800000
284.37	4.26980000	2.59260000
285.35	4.26780000	2.54810000
286.34	4.26010000	2.50820000
287.34	4.25270000	2.47220000
288.34	4.25360000	2.43600000
289.35	4.25820000	2.40200000
290.36	4.25820000	2.37300000
291.39	4.25290000	2.34850000
292.42	4.24590000	2.32720000
293.46	4.23940000	2.30720000
294.50	4.23370000	2.28850000
295.55	4.22720000	2.27190000
296.62	4.21950000	2.25800000
297.68	4.21670000	2.24600000
298.76	4.22240000	2.23240000
299.84	4.23050000	2.21970000
300.93	4.23750000	2.21030000
302.03	4.24560000	2.20050000
303.14	4.25510000	2.18850000
304.26	4.26620000	2.17580000
305.38	4.27830000	2.16400000
306.51	4.28930000	2.15370000
307.66	4.30070000	2.14470000
308.80	4.31550000	2.13580000
309.96	4.33490000	2.12710000
311.13	4.35570000	2.11800000
312.31	4.37700000	2.10760000
313.49	4.40050000	2.09610000
314.68	4.42500000	2.08100000
315.89	4.45070000	2.06380000
317.10	4.47800000	2.04450000
318.32	4.50350000	2.02350000
319.55	4.52820000	2.00280000
320.79	4.55470000	1.97850000
322.04	4.58260000	1.94990000
323.30	4.61110000	1.92010000
324.57	4.63870000	1.89080000
325.85	4.66240000	1.86020000
327.14	4.68140000	1.82520000
328.44	4.69720000	1.78700000
329.75	4.71010000	1.74580000
331.07	4.71930000	1.70220000
332.40	4.72870000	1.65720000
333.74	4.74210000	1.60690000
335.10	4.75850000	1.55340000
336.46	4.77550000	1.50170000
337.83	4.79060000	1.44940000
339.22	4.80180000	1.39460000
340.62	4.80930000	1.33930000
342.03	4.81330000	1.28440000
343.45	4.81260000	1.22930000
344.88	4.80710000	1.17520000
346.33	4.79860000	1.12260000
347.78	4.78740000	1.07140000
349.25	4.77260000	1.02240000
350.74	4.75420000	0.97582000
352.23	4.73370000	0.92988000
353.74	4.71140000	0.88547000
355.26	4.68700000	0.84539000
356.79	4.66210000	0.80812000
358.34	4.63750000	0.77213000
359.90	4.61210000	0.73910000
361.47	4.58620000	0.70915000
363.06	4.56110000	0.68144000
364.66	4.53630000	0.65537000
366.28	4.51210000	0.62941000
367.91	4.48860000	0.60322000
369.55	4.46470000	0.57848000
371.21	4.44020000	0.55571000
372.89	4.41660000	0.53296000
374.58	4.39400000	0.51039000
376.28	4.37140000	0.48995000
378.00	4.34880000	0.47126000
379.74	4.32660000	0.45314000
381.49	4.30450000	0.43507000
383.26	4.28260000	0.41712000
385.05	4.26110000	0.39989000
386.85	4.23970000	0.38372000
388.67	4.21880000	0.36782000
390.50	4.19850000	0.35178000
392.36	4.17880000	0.33669000
394.23	4.15950000	0.32315000
396.12	4.14050000	0.31068000
398.03	4.12170000	0.29858000
399.95	4.10340000	0.28685000
401.90	4.08550000	0.27559000
403.86	4.06790000	0.26449000
405.84	4.05050000	0.25310000
407.85	4.03320000	0.24078000
409.87	4.01610000	0.22853000
411.91	4.00000000	0.21761000
413.97	3.98480000	0.20795000
416.06	3.97000000	0.19896000
418.16	3.95480000	0.19014000
420.29	3.93830000	0.18158000
422.44	3.92070000	0.17280000
424.61	3.90410000	0.16329000
426.80	3.89020000	0.15332000
429.01	3.87840000	0.14339000
431.25	3.86700000	0.13406000
433.51	3.85400000	0.12527000
435.80	3.83860000	0.11686000
438.11	3.82160000	0.10946000
440.44	3.80470000	0.10316000
442.80	3.78990000	0.09725500
445.19	3.77670000	0.09116500
447.60	3.76270000	0.08391700
450.04	3.74750000	0.07559500
452.50	3.73140000	0.06817800
454.99	3.71560000	0.06270400
457.51	3.70130000	0.05870600
460.06	3.68770000	0.05528900
462.63	3.67450000	0.05158700
465.24	3.66110000	0.04757300
467.87	3.64750000	0.04329300
470.53	3.63450000	0.03815600
473.23	3.62130000	0.03270900
475.95	3.60790000	0.02823000
478.71	3.59540000	0.02478400
481.50	3.58300000	0.02199700
484.32	3.57080000	0.01929700
487.17	3.55850000	0.01592500
490.06	3.54550000	0.01189600
492.98	3.53290000	0.00763400
495.94	3.52000000	0.00355000
498.93	3.50500000	0.00081100
501.96	3.49100000	0.00000000
505.03	3.47940000	0.00000000
508.14	3.46760000	0.00000000
511.28	3.45510000	0.00000000
514.46	3.44430000	0.00000000
517.68	3.43450000	0.00000000
520.95	3.42390000	0.00000000
524.25	3.41350000	0.00000000
527.60	3.40460000	0.00000000
530.99	3.39670000	0.00000000
534.42	3.38770000	0.00000000
537.90	3.37830000	0.00000000
541.42	3.36970000	0.00000000
544.99	3.36070000	0.00000000
548.61	3.35190000	0.00000000
552.27	3.34390000	0.00000000
555.99	3.33660000	0.00000000
559.75	3.33030000	0.00000000
563.57	3.32280000	0.00000000
567.44	3.31420000	0.00000000
571.36	3.30700000	0.00000000
575.34	3.30120000	0.00000000
579.37	3.29420000	0.00000000
583.46	3.28680000	0.00000000
587.61	3.28080000	0.00000000
591.81	3.27480000	0.00000000
596.08	3.26840000	0.00000000
600.41	3.26150000	0.00000000
604.81	3.25470000	0.00000000
609.26	3.24860000	0.00000000
613.79	3.24200000	0.00000000
618.38	3.23550000	0.00000000
623.04	3.22970000	0.00000000
627.77	3.22460000	0.00000000
632.58	3.21970000	0.00000000
637.46	3.21420000	0.00000000
642.41	3.20880000	0.00000000
647.44	3.20340000	0.00000000
652.55	3.19880000	0.00000000
657.75	3.19440000	0.00000000
663.02	3.18930000	0.00000000
668.38	3.18370000	0.00000000
673.83	3.17770000	0.00000000
679.37	3.17230000	0.00000000
685.00	3.16810000	0.00000000
690.73	3.16410000	0.00000000
696.55	3.15890000	0.00000000
702.47	3.15440000	0.00000000
708.49	3.15110000	0.00000000
714.61	3.14670000	0.00000000
720.84	3.14130000	0.00000000
727.19	3.13710000	0.00000000
733.64	3.13350000	0.00000000
740.21	3.12880000	0.00000000
746.90	3.12480000	0.00000000
753.71	3.12140000	0.00000000
760.65	3.11690000	0.00000000
767.71	3.11250000	0.00000000
774.91	3.10870000	0.00000000
782.24	3.10550000	0.00000000
789.71	3.10240000	0.00000000
797.33	3.09890000	0.00000000
805.10	3.09530000	0.00000000
813.02	3.09180000	0.00000000
821.09	3.08890000	0.00000000
829.33	3.08550000	0.00000000
837.74	3.08160000	0.00000000
846.32	3.07890000	0.00000000
855.07	3.07620000	0.00000000
864.01	3.07300000	0.00000000
873.14	3.06990000	0.00000000
882.46	3.06630000	0.00000000
891.98	3.06210000	0.00000000
901.71	3.05910000	0.00000000
911.66	3.05730000	0.00000000
921.82	3.05490000	0.00000000
932.22	3.05210000	0.00000000
942.85	3.04930000	0.00000000
953.73	3.04650000	0.00000000
964.87	3.04320000	0.00000000
976.26	3.04000000	0.00000000
987.93	3.03790000	0.00000000
