; From SOPRA S.A. http://www.sopra-sa.com/indices.htm
; Filename    Symbol               Range (nm)     Description
; ALAS445T    AlAs                275      987    Aluminum Arsenide (Temp: 445 C)
; lambda/nm       n         k
275.83	4.20770000	3.01540000
276.75	4.22320000	2.96490000
277.68	4.23430000	2.91160000
278.62	4.23960000	2.86030000
279.56	4.24140000	2.81180000
280.51	4.24220000	2.76270000
281.46	4.24410000	2.71540000
282.43	4.25310000	2.66890000
283.39	4.26680000	2.62340000
284.37	4.27950000	2.58030000
285.35	4.28670000	2.53910000
286.34	4.28780000	2.50310000
287.34	4.28440000	2.47320000
288.34	4.27710000	2.44710000
289.35	4.27040000	2.42320000
290.36	4.26780000	2.40110000
291.39	4.26600000	2.37970000
292.42	4.26360000	2.35540000
293.46	4.26040000	2.32910000
294.50	4.25420000	2.30490000
295.55	4.24800000	2.28390000
296.62	4.24390000	2.26780000
297.68	4.24090000	2.25630000
298.76	4.24040000	2.24750000
299.84	4.24160000	2.23940000
300.93	4.24280000	2.22880000
302.03	4.24770000	2.21710000
303.14	4.25780000	2.20620000
304.26	4.26890000	2.19640000
305.38	4.28130000	2.18880000
306.51	4.29800000	2.18120000
307.66	4.31660000	2.17370000
308.80	4.33420000	2.16650000
309.96	4.35150000	2.15730000
311.13	4.36940000	2.14510000
312.31	4.38780000	2.12900000
313.49	4.40860000	2.10960000
314.68	4.43350000	2.09100000
315.89	4.46220000	2.07290000
317.10	4.49380000	2.05300000
318.32	4.52620000	2.03160000
319.55	4.55770000	2.00940000
320.79	4.58700000	1.98650000
322.04	4.61430000	1.96180000
323.30	4.64290000	1.93370000
324.57	4.67170000	1.90010000
325.85	4.69650000	1.86210000
327.14	4.71760000	1.82240000
328.44	4.73650000	1.77970000
329.75	4.75290000	1.73370000
331.07	4.76770000	1.68620000
332.40	4.78200000	1.63720000
333.74	4.79380000	1.58640000
335.10	4.80390000	1.53370000
336.46	4.81620000	1.47980000
337.83	4.82820000	1.42480000
339.22	4.83490000	1.36830000
340.62	4.83710000	1.31090000
342.03	4.83600000	1.25360000
343.45	4.83080000	1.19680000
344.88	4.82150000	1.14150000
346.33	4.80850000	1.08870000
347.78	4.79240000	1.03790000
349.25	4.77370000	0.98886000
350.74	4.75240000	0.94249000
352.23	4.72870000	0.89906000
353.74	4.70400000	0.85770000
355.26	4.67900000	0.81845000
356.79	4.65420000	0.78183000
358.34	4.62930000	0.74775000
359.90	4.60260000	0.71669000
361.47	4.57510000	0.68849000
363.06	4.54880000	0.66196000
364.66	4.52410000	0.63535000
366.28	4.50020000	0.60820000
367.91	4.47630000	0.58191000
369.55	4.45230000	0.55704000
371.21	4.42880000	0.53348000
372.89	4.40610000	0.51128000
374.58	4.38330000	0.49063000
376.28	4.35950000	0.47180000
378.00	4.33570000	0.45486000
379.74	4.31250000	0.43909000
381.49	4.28990000	0.42282000
383.26	4.26850000	0.40637000
385.05	4.24770000	0.39116000
386.85	4.22710000	0.37653000
388.67	4.20690000	0.36165000
390.50	4.18700000	0.34654000
392.36	4.16760000	0.33156000
394.23	4.14890000	0.31713000
396.12	4.13040000	0.30375000
398.03	4.11140000	0.29138000
399.95	4.09260000	0.27929000
401.90	4.07460000	0.26766000
403.86	4.05670000	0.25614000
405.84	4.03900000	0.24398000
407.85	4.02150000	0.23182000
409.87	4.00440000	0.22010000
411.91	3.98870000	0.20938000
413.97	3.97430000	0.20014000
416.06	3.95970000	0.19135000
418.16	3.94370000	0.18277000
420.29	3.92630000	0.17494000
422.44	3.90870000	0.16694000
424.61	3.89310000	0.15804000
426.80	3.88070000	0.14888000
429.01	3.86920000	0.13992000
431.25	3.85650000	0.13082000
433.51	3.84250000	0.12186000
435.80	3.82740000	0.11377000
438.11	3.81120000	0.10660000
440.44	3.79500000	0.09989000
442.80	3.78080000	0.09301600
445.19	3.76770000	0.08563300
447.60	3.75290000	0.07740700
450.04	3.73690000	0.06909600
452.50	3.72060000	0.06193200
454.99	3.70480000	0.05600100
457.51	3.69000000	0.05150000
460.06	3.67570000	0.04797900
462.63	3.66160000	0.04417600
465.24	3.64740000	0.04033000
467.87	3.63310000	0.03662200
470.53	3.61960000	0.03215600
473.23	3.60630000	0.02760500
475.95	3.59370000	0.02380300
478.71	3.58220000	0.02001400
481.50	3.57000000	0.01593300
484.32	3.55700000	0.01182000
487.17	3.54290000	0.00777700
490.06	3.52760000	0.00386000
492.98	3.51280000	0.00096700
495.94	3.49890000	0.00000000
498.93	3.48490000	0.00000000
501.96	3.47260000	0.00000000
505.03	3.46220000	0.00000000
508.14	3.45100000	0.00000000
511.28	3.43890000	0.00000000
514.46	3.42840000	0.00000000
517.68	3.41890000	0.00000000
520.95	3.40830000	0.00000000
524.25	3.39810000	0.00000000
527.60	3.38950000	0.00000000
530.99	3.38170000	0.00000000
534.42	3.37280000	0.00000000
537.90	3.36350000	0.00000000
541.42	3.35490000	0.00000000
544.99	3.34600000	0.00000000
548.61	3.33720000	0.00000000
552.27	3.32930000	0.00000000
555.99	3.32210000	0.00000000
559.75	3.31580000	0.00000000
563.57	3.30840000	0.00000000
567.44	3.29970000	0.00000000
571.36	3.29250000	0.00000000
575.34	3.28680000	0.00000000
579.37	3.27980000	0.00000000
583.46	3.27240000	0.00000000
587.61	3.26640000	0.00000000
591.81	3.26050000	0.00000000
596.08	3.25410000	0.00000000
600.41	3.24720000	0.00000000
604.81	3.24030000	0.00000000
609.26	3.23420000	0.00000000
613.79	3.22760000	0.00000000
618.38	3.22110000	0.00000000
623.04	3.21530000	0.00000000
627.77	3.21020000	0.00000000
632.58	3.20530000	0.00000000
637.46	3.19970000	0.00000000
642.41	3.19440000	0.00000000
647.44	3.18910000	0.00000000
652.55	3.18450000	0.00000000
657.75	3.17990000	0.00000000
663.02	3.17490000	0.00000000
668.38	3.16930000	0.00000000
673.83	3.16310000	0.00000000
679.37	3.15760000	0.00000000
685.00	3.15350000	0.00000000
690.73	3.14950000	0.00000000
696.55	3.14420000	0.00000000
702.47	3.13970000	0.00000000
708.49	3.13650000	0.00000000
714.61	3.13210000	0.00000000
720.84	3.12650000	0.00000000
727.19	3.12230000	0.00000000
733.64	3.11880000	0.00000000
740.21	3.11400000	0.00000000
746.90	3.11000000	0.00000000
753.71	3.10660000	0.00000000
760.65	3.10210000	0.00000000
767.71	3.09760000	0.00000000
774.91	3.09380000	0.00000000
782.24	3.09070000	0.00000000
789.71	3.08760000	0.00000000
797.33	3.08400000	0.00000000
805.10	3.08040000	0.00000000
813.02	3.07680000	0.00000000
821.09	3.07400000	0.00000000
829.33	3.07050000	0.00000000
837.74	3.06660000	0.00000000
846.32	3.06390000	0.00000000
855.07	3.06120000	0.00000000
864.01	3.05800000	0.00000000
873.14	3.05480000	0.00000000
882.46	3.05110000	0.00000000
891.98	3.04680000	0.00000000
901.71	3.04380000	0.00000000
911.66	3.04210000	0.00000000
921.82	3.03980000	0.00000000
932.22	3.03690000	0.00000000
942.85	3.03400000	0.00000000
953.73	3.03130000	0.00000000
964.87	3.02790000	0.00000000
976.26	3.02460000	0.00000000
987.93	3.02260000	0.00000000
