; From SOPRA S.A. http://www.sopra-sa.com/indices.htm
; Filename    Symbol               Range (nm)     Description
; ALAS228T    AlAs                275      987    Aluminum Arsenide (Temp: 228 C)
; lambda/nm       n         k
275.83	4.37100000	2.78670000
276.75	4.37390000	2.73140000
277.68	4.37680000	2.67790000
278.62	4.37480000	2.62840000
279.56	4.36600000	2.58190000
280.51	4.35510000	2.53970000
281.46	4.34350000	2.50460000
282.43	4.32790000	2.47200000
283.39	4.30920000	2.43960000
284.37	4.29210000	2.40660000
285.35	4.27580000	2.37680000
286.34	4.25970000	2.35600000
287.34	4.24780000	2.33980000
288.34	4.23860000	2.32390000
289.35	4.23180000	2.30990000
290.36	4.23040000	2.30140000
291.39	4.23250000	2.29670000
292.42	4.23640000	2.28910000
293.46	4.23960000	2.27880000
294.50	4.24170000	2.27050000
295.55	4.24630000	2.26690000
296.62	4.25310000	2.26670000
297.68	4.26270000	2.26580000
298.76	4.27520000	2.26520000
299.84	4.29020000	2.26560000
300.93	4.30960000	2.26500000
302.03	4.33130000	2.26220000
303.14	4.35330000	2.25730000
304.26	4.37880000	2.25220000
305.38	4.41150000	2.24730000
306.51	4.44900000	2.24100000
307.66	4.48650000	2.23290000
308.80	4.52520000	2.22060000
309.96	4.56470000	2.20250000
311.13	4.60550000	2.17970000
312.31	4.65030000	2.15260000
313.49	4.69500000	2.12110000
314.68	4.73860000	2.08600000
315.89	4.78280000	2.04900000
317.10	4.82810000	2.00930000
318.32	4.87340000	1.96490000
319.55	4.91410000	1.91790000
320.79	4.95070000	1.86590000
322.04	4.98560000	1.80810000
323.30	5.01900000	1.74790000
324.57	5.05010000	1.68220000
325.85	5.07240000	1.61130000
327.14	5.08220000	1.53860000
328.44	5.08050000	1.46480000
329.75	5.07030000	1.38860000
331.07	5.05480000	1.31150000
332.40	5.03230000	1.23720000
333.74	5.00470000	1.16610000
335.10	4.97690000	1.09910000
336.46	4.94990000	1.03660000
337.83	4.92210000	0.97636000
339.22	4.89060000	0.92062000
340.62	4.85610000	0.87094000
342.03	4.82120000	0.82598000
343.45	4.78660000	0.78461000
344.88	4.75370000	0.74643000
346.33	4.72130000	0.71205000
347.78	4.68780000	0.68105000
349.25	4.65480000	0.65237000
350.74	4.62380000	0.62519000
352.23	4.59340000	0.59894000
353.74	4.56270000	0.57383000
355.26	4.53280000	0.55054000
356.79	4.50410000	0.52905000
358.34	4.47650000	0.50886000
359.90	4.45000000	0.49014000
361.47	4.42430000	0.47258000
363.06	4.39910000	0.45504000
364.66	4.37440000	0.43792000
366.28	4.34990000	0.42193000
367.91	4.32610000	0.40665000
369.55	4.30280000	0.39176000
371.21	4.28010000	0.37734000
372.89	4.25830000	0.36349000
374.58	4.23730000	0.35078000
376.28	4.21720000	0.33887000
378.00	4.19790000	0.32599000
379.74	4.17890000	0.31229000
381.49	4.15940000	0.29925000
383.26	4.14000000	0.28664000
385.05	4.12150000	0.27417000
386.85	4.10360000	0.26125000
388.67	4.08600000	0.24745000
390.50	4.06860000	0.23382000
392.36	4.05170000	0.22214000
394.23	4.03530000	0.21220000
396.12	4.01920000	0.20179000
398.03	4.00370000	0.19109000
399.95	3.98840000	0.18005000
401.90	3.97030000	0.16881000
403.86	3.95090000	0.15925000
405.84	3.93280000	0.15092000
407.85	3.91490000	0.14298000
409.87	3.89850000	0.13517000
411.91	3.88410000	0.12721000
413.97	3.86850000	0.11938000
416.06	3.85250000	0.11155000
418.16	3.83750000	0.10326000
420.29	3.82160000	0.09456600
422.44	3.80520000	0.08585200
424.61	3.78940000	0.07752800
426.80	3.77350000	0.06923500
429.01	3.75690000	0.06083100
431.25	3.74030000	0.05355300
433.51	3.72500000	0.04825000
435.80	3.71050000	0.04296800
438.11	3.69450000	0.03625900
440.44	3.67700000	0.02998400
442.80	3.66090000	0.02435000
445.19	3.64550000	0.01892300
447.60	3.62850000	0.01416900
450.04	3.61170000	0.00941400
452.50	3.59490000	0.00459300
454.99	3.57800000	0.00113100
457.51	3.56210000	0.00000000
460.06	3.54710000	0.00000000
462.63	3.53250000	0.00000000
465.24	3.51790000	0.00000000
467.87	3.50320000	0.00000000
470.53	3.48980000	0.00000000
473.23	3.47750000	0.00000000
475.95	3.46640000	0.00000000
478.71	3.45640000	0.00000000
481.50	3.44600000	0.00000000
484.32	3.43510000	0.00000000
487.17	3.42380000	0.00000000
490.06	3.41190000	0.00000000
492.98	3.40180000	0.00000000
495.94	3.39280000	0.00000000
498.93	3.38240000	0.00000000
501.96	3.37300000	0.00000000
505.03	3.36530000	0.00000000
508.14	3.35620000	0.00000000
511.28	3.34590000	0.00000000
514.46	3.33730000	0.00000000
517.68	3.32960000	0.00000000
520.95	3.32060000	0.00000000
524.25	3.31170000	0.00000000
527.60	3.30440000	0.00000000
530.99	3.29810000	0.00000000
534.42	3.29040000	0.00000000
537.90	3.28210000	0.00000000
541.42	3.27470000	0.00000000
544.99	3.26670000	0.00000000
548.61	3.25880000	0.00000000
552.27	3.25180000	0.00000000
555.99	3.24570000	0.00000000
559.75	3.24040000	0.00000000
563.57	3.23380000	0.00000000
567.44	3.22570000	0.00000000
571.36	3.21920000	0.00000000
575.34	3.21440000	0.00000000
579.37	3.20820000	0.00000000
583.46	3.20130000	0.00000000
587.61	3.19610000	0.00000000
591.81	3.19090000	0.00000000
596.08	3.18510000	0.00000000
600.41	3.17860000	0.00000000
604.81	3.17230000	0.00000000
609.26	3.16670000	0.00000000
613.79	3.16050000	0.00000000
618.38	3.15440000	0.00000000
623.04	3.14910000	0.00000000
627.77	3.14460000	0.00000000
632.58	3.14020000	0.00000000
637.46	3.13520000	0.00000000
642.41	3.13020000	0.00000000
647.44	3.12530000	0.00000000
652.55	3.12120000	0.00000000
657.75	3.11720000	0.00000000
663.02	3.11250000	0.00000000
668.38	3.10720000	0.00000000
673.83	3.10120000	0.00000000
679.37	3.09600000	0.00000000
685.00	3.09230000	0.00000000
690.73	3.08870000	0.00000000
696.55	3.08370000	0.00000000
702.47	3.07950000	0.00000000
708.49	3.07680000	0.00000000
714.61	3.07270000	0.00000000
720.84	3.06720000	0.00000000
727.19	3.06330000	0.00000000
733.64	3.06010000	0.00000000
740.21	3.05550000	0.00000000
746.90	3.05170000	0.00000000
753.71	3.04870000	0.00000000
760.65	3.04430000	0.00000000
767.71	3.04000000	0.00000000
774.91	3.03640000	0.00000000
782.24	3.03360000	0.00000000
789.71	3.03080000	0.00000000
797.33	3.02740000	0.00000000
805.10	3.02410000	0.00000000
813.02	3.02080000	0.00000000
821.09	3.01820000	0.00000000
829.33	3.01500000	0.00000000
837.74	3.01110000	0.00000000
846.32	3.00870000	0.00000000
855.07	3.00630000	0.00000000
864.01	3.00320000	0.00000000
873.14	3.00030000	0.00000000
882.46	2.99660000	0.00000000
891.98	2.99230000	0.00000000
901.71	2.98950000	0.00000000
911.66	2.98810000	0.00000000
921.82	2.98600000	0.00000000
932.22	2.98330000	0.00000000
942.85	2.98060000	0.00000000
953.73	2.97800000	0.00000000
964.87	2.97460000	0.00000000
976.26	2.97140000	0.00000000
987.93	2.96960000	0.00000000
