; From SOPRA S.A. http://www.sopra-sa.com/indices.htm
; Filename    Symbol               Range (nm)     Description
; ALAS178T    AlAs                275      987    Aluminum Arsenide (Temp: 178 C)
; lambda/nm       n         k
275.83	4.39800000	2.74530000
276.75	4.38330000	2.68840000
277.68	4.37430000	2.63250000
278.62	4.37070000	2.57950000
279.56	4.36240000	2.53110000
280.51	4.34530000	2.48740000
281.46	4.32730000	2.44890000
282.43	4.30800000	2.41670000
283.39	4.28840000	2.38850000
284.37	4.27320000	2.36420000
285.35	4.26130000	2.34790000
286.34	4.25330000	2.33670000
287.34	4.24680000	2.32680000
288.34	4.23780000	2.31790000
289.35	4.22720000	2.31170000
290.36	4.21880000	2.30680000
291.39	4.21440000	2.30000000
292.42	4.21220000	2.29460000
293.46	4.21410000	2.29330000
294.50	4.22220000	2.29230000
295.55	4.23460000	2.29090000
296.62	4.24950000	2.29060000
297.68	4.26580000	2.29100000
298.76	4.28390000	2.29290000
299.84	4.30610000	2.29720000
300.93	4.33400000	2.30190000
302.03	4.36630000	2.30440000
303.14	4.40080000	2.30480000
304.26	4.43730000	2.30240000
305.38	4.47600000	2.29470000
306.51	4.51720000	2.28200000
307.66	4.56030000	2.26390000
308.80	4.60450000	2.23970000
309.96	4.64870000	2.21190000
311.13	4.69250000	2.18100000
312.31	4.73760000	2.14580000
313.49	4.78280000	2.10820000
314.68	4.82680000	2.06950000
315.89	4.87080000	2.02820000
317.10	4.91630000	1.98180000
318.32	4.96420000	1.93020000
319.55	5.01290000	1.87380000
320.79	5.05710000	1.80970000
322.04	5.09280000	1.73820000
323.30	5.12420000	1.65960000
324.57	5.15500000	1.57430000
325.85	5.17460000	1.48870000
327.14	5.17540000	1.40650000
328.44	5.15960000	1.32760000
329.75	5.13210000	1.25190000
331.07	5.09750000	1.18060000
332.40	5.05670000	1.11530000
333.74	5.01090000	1.05280000
335.10	4.96360000	0.99251000
336.46	4.92320000	0.93548000
337.83	4.89130000	0.88197000
339.22	4.85820000	0.83319000
340.62	4.82160000	0.78873000
342.03	4.78440000	0.74815000
343.45	4.74770000	0.71101000
344.88	4.71260000	0.67725000
346.33	4.67850000	0.64710000
347.78	4.64530000	0.61892000
349.25	4.61280000	0.59233000
350.74	4.58010000	0.56864000
352.23	4.54760000	0.54748000
353.74	4.51670000	0.52738000
355.26	4.48800000	0.50801000
356.79	4.46050000	0.48983000
358.34	4.43420000	0.47284000
359.90	4.40920000	0.45710000
361.47	4.38540000	0.44200000
363.06	4.36300000	0.42587000
364.66	4.34080000	0.40929000
366.28	4.31780000	0.39390000
367.91	4.29450000	0.37922000
369.55	4.27210000	0.36475000
371.21	4.25110000	0.35097000
372.89	4.23080000	0.33797000
374.58	4.21090000	0.32504000
376.28	4.19160000	0.31319000
378.00	4.17230000	0.30277000
379.74	4.15440000	0.29084000
381.49	4.13840000	0.27766000
383.26	4.12150000	0.26511000
385.05	4.10450000	0.25328000
386.85	4.08860000	0.24259000
388.67	4.07250000	0.23070000
390.50	4.05540000	0.21640000
392.36	4.03790000	0.20284000
394.23	4.02090000	0.19102000
396.12	4.00260000	0.17992000
398.03	3.98410000	0.16964000
399.95	3.96770000	0.15934000
401.90	3.95020000	0.14849000
403.86	3.93150000	0.13845000
405.84	3.91400000	0.12936000
407.85	3.89620000	0.12027000
409.87	3.87920000	0.11124000
411.91	3.86380000	0.10226000
413.97	3.84660000	0.09363600
416.06	3.82860000	0.08567600
418.16	3.81160000	0.07788700
420.29	3.79380000	0.07047000
422.44	3.77610000	0.06360600
424.61	3.75970000	0.05718400
426.80	3.74360000	0.05049700
429.01	3.72690000	0.04364800
431.25	3.71070000	0.03806100
433.51	3.69610000	0.03329200
435.80	3.68130000	0.02815000
438.11	3.66480000	0.02289900
440.44	3.64740000	0.01807800
442.80	3.63180000	0.01325200
445.19	3.61640000	0.00806900
447.60	3.59840000	0.00343900
450.04	3.57980000	0.00072200
452.50	3.56280000	0.00000000
454.99	3.54820000	0.00000000
457.51	3.53540000	0.00000000
460.06	3.52250000	0.00000000
462.63	3.50940000	0.00000000
465.24	3.49590000	0.00000000
467.87	3.48210000	0.00000000
470.53	3.46950000	0.00000000
473.23	3.45810000	0.00000000
475.95	3.44780000	0.00000000
478.71	3.43850000	0.00000000
481.50	3.42860000	0.00000000
484.32	3.41830000	0.00000000
487.17	3.40750000	0.00000000
490.06	3.39610000	0.00000000
492.98	3.38650000	0.00000000
495.94	3.37780000	0.00000000
498.93	3.36780000	0.00000000
501.96	3.35880000	0.00000000
505.03	3.35160000	0.00000000
508.14	3.34300000	0.00000000
511.28	3.33300000	0.00000000
514.46	3.32470000	0.00000000
517.68	3.31730000	0.00000000
520.95	3.30860000	0.00000000
524.25	3.30000000	0.00000000
527.60	3.29310000	0.00000000
530.99	3.28710000	0.00000000
534.42	3.27970000	0.00000000
537.90	3.27170000	0.00000000
541.42	3.26450000	0.00000000
544.99	3.25680000	0.00000000
548.61	3.24920000	0.00000000
552.27	3.24240000	0.00000000
555.99	3.23650000	0.00000000
559.75	3.23150000	0.00000000
563.57	3.22500000	0.00000000
567.44	3.21710000	0.00000000
571.36	3.21090000	0.00000000
575.34	3.20630000	0.00000000
579.37	3.20040000	0.00000000
583.46	3.19370000	0.00000000
587.61	3.18860000	0.00000000
591.81	3.18360000	0.00000000
596.08	3.17790000	0.00000000
600.41	3.17170000	0.00000000
604.81	3.16550000	0.00000000
609.26	3.16010000	0.00000000
613.79	3.15410000	0.00000000
618.38	3.14810000	0.00000000
623.04	3.14300000	0.00000000
627.77	3.13870000	0.00000000
632.58	3.13440000	0.00000000
637.46	3.12960000	0.00000000
642.41	3.12470000	0.00000000
647.44	3.12000000	0.00000000
652.55	3.11610000	0.00000000
657.75	3.11220000	0.00000000
663.02	3.10770000	0.00000000
668.38	3.10240000	0.00000000
673.83	3.09660000	0.00000000
679.37	3.09150000	0.00000000
685.00	3.08790000	0.00000000
690.73	3.08450000	0.00000000
696.55	3.07960000	0.00000000
702.47	3.07560000	0.00000000
708.49	3.07300000	0.00000000
714.61	3.06900000	0.00000000
720.84	3.06360000	0.00000000
727.19	3.05980000	0.00000000
733.64	3.05670000	0.00000000
740.21	3.05220000	0.00000000
746.90	3.04850000	0.00000000
753.71	3.04570000	0.00000000
760.65	3.04130000	0.00000000
767.71	3.03710000	0.00000000
774.91	3.03360000	0.00000000
782.24	3.03090000	0.00000000
789.71	3.02830000	0.00000000
797.33	3.02500000	0.00000000
805.10	3.02170000	0.00000000
813.02	3.01850000	0.00000000
821.09	3.01600000	0.00000000
829.33	3.01290000	0.00000000
837.74	3.00910000	0.00000000
846.32	3.00680000	0.00000000
855.07	3.00450000	0.00000000
864.01	3.00150000	0.00000000
873.14	2.99860000	0.00000000
882.46	2.99510000	0.00000000
891.98	2.99080000	0.00000000
901.71	2.98810000	0.00000000
911.66	2.98680000	0.00000000
921.82	2.98480000	0.00000000
932.22	2.98210000	0.00000000
942.85	2.97950000	0.00000000
953.73	2.97700000	0.00000000
964.87	2.97380000	0.00000000
976.26	2.97060000	0.00000000
987.93	2.96880000	0.00000000
