; From SOPRA S.A. http://www.sopra-sa.com/indices.htm
; Filename    Symbol               Range (nm)     Description
; ALAS305T    AlAs                275      987    Aluminum Arsenide (Temp: 305 C)
; lambda/nm       n         k
275.83	4.34500000	2.89430000
276.75	4.35590000	2.83560000
277.68	4.36030000	2.78000000
278.62	4.35860000	2.72650000
279.56	4.35060000	2.67540000
280.51	4.33970000	2.62640000
281.46	4.32880000	2.58110000
282.43	4.31990000	2.54030000
283.39	4.30920000	2.50260000
284.37	4.29410000	2.46950000
285.35	4.27980000	2.44160000
286.34	4.26810000	2.41680000
287.34	4.25820000	2.39410000
288.34	4.25090000	2.37290000
289.35	4.24660000	2.35230000
290.36	4.24300000	2.33350000
291.39	4.24000000	2.31840000
292.42	4.23850000	2.30470000
293.46	4.23910000	2.29100000
294.50	4.24300000	2.27930000
295.55	4.24930000	2.27050000
296.62	4.25650000	2.26370000
297.68	4.26560000	2.25760000
298.76	4.27340000	2.25310000
299.84	4.27990000	2.25000000
300.93	4.29060000	2.24560000
302.03	4.30530000	2.24030000
303.14	4.32210000	2.23630000
304.26	4.34140000	2.23120000
305.38	4.36300000	2.22280000
306.51	4.38770000	2.21500000
307.66	4.41480000	2.20850000
308.80	4.44560000	2.19960000
309.96	4.47910000	2.18780000
311.13	4.51320000	2.17500000
312.31	4.54930000	2.16060000
313.49	4.58620000	2.14190000
314.68	4.62220000	2.11640000
315.89	4.65910000	2.08530000
317.10	4.69730000	2.05160000
318.32	4.73510000	2.01400000
319.55	4.76940000	1.97320000
320.79	4.80190000	1.93230000
322.04	4.83750000	1.88990000
323.30	4.87730000	1.84280000
324.57	4.91780000	1.79120000
325.85	4.95160000	1.73630000
327.14	4.97570000	1.67770000
328.44	4.98920000	1.61790000
329.75	4.99280000	1.55620000
331.07	4.98930000	1.48870000
332.40	4.97940000	1.41890000
333.74	4.96730000	1.34990000
335.10	4.95740000	1.28020000
336.46	4.95000000	1.21040000
337.83	4.94150000	1.14320000
339.22	4.92590000	1.07980000
340.62	4.90380000	1.02050000
342.03	4.87760000	0.96500000
343.45	4.84680000	0.91274000
344.88	4.81340000	0.86512000
346.33	4.78010000	0.82301000
347.78	4.74780000	0.78428000
349.25	4.71620000	0.74769000
350.74	4.68570000	0.71364000
352.23	4.65560000	0.68218000
353.74	4.62500000	0.65351000
355.26	4.59460000	0.62710000
356.79	4.56510000	0.60162000
358.34	4.53610000	0.57778000
359.90	4.50740000	0.55660000
361.47	4.47960000	0.53682000
363.06	4.45280000	0.51741000
364.66	4.42710000	0.49801000
366.28	4.40280000	0.47824000
367.91	4.37950000	0.45897000
369.55	4.35670000	0.44120000
371.21	4.33410000	0.42415000
372.89	4.31230000	0.40687000
374.58	4.29090000	0.39039000
376.28	4.26920000	0.37552000
378.00	4.24790000	0.36193000
379.74	4.22750000	0.34885000
381.49	4.20790000	0.33523000
383.26	4.18860000	0.32158000
385.05	4.17050000	0.30840000
386.85	4.15280000	0.29494000
388.67	4.13300000	0.28145000
390.50	4.11300000	0.26886000
392.36	4.09480000	0.25715000
394.23	4.07790000	0.24610000
396.12	4.06020000	0.23558000
398.03	4.04230000	0.22484000
399.95	4.02580000	0.21423000
401.90	4.00900000	0.20460000
403.86	3.99280000	0.19519000
405.84	3.97830000	0.18469000
407.85	3.96290000	0.17269000
409.87	3.94690000	0.16010000
411.91	3.93150000	0.14810000
413.97	3.91410000	0.13648000
416.06	3.89510000	0.12516000
418.16	3.87620000	0.11533000
420.29	3.85700000	0.10705000
422.44	3.83850000	0.09915900
424.61	3.82100000	0.09134800
426.80	3.80370000	0.08387400
429.01	3.78640000	0.07675200
431.25	3.76980000	0.06991600
433.51	3.75380000	0.06375500
435.80	3.73710000	0.05881600
438.11	3.71980000	0.05483700
440.44	3.70270000	0.05135200
442.80	3.68830000	0.04790300
445.19	3.67540000	0.04388800
447.60	3.66130000	0.03908200
450.04	3.64690000	0.03364300
452.50	3.63240000	0.02831600
454.99	3.61850000	0.02396100
457.51	3.60590000	0.02002500
460.06	3.59290000	0.01550700
462.63	3.57880000	0.01071800
465.24	3.56310000	0.00567900
467.87	3.54520000	0.00149300
470.53	3.52780000	0.00000000
473.23	3.51270000	0.00000000
475.95	3.49970000	0.00000000
478.71	3.48810000	0.00000000
481.50	3.47640000	0.00000000
484.32	3.46450000	0.00000000
487.17	3.45220000	0.00000000
490.06	3.43950000	0.00000000
492.98	3.42860000	0.00000000
495.94	3.41880000	0.00000000
498.93	3.40790000	0.00000000
501.96	3.39790000	0.00000000
505.03	3.38950000	0.00000000
508.14	3.38000000	0.00000000
511.28	3.36920000	0.00000000
514.46	3.36010000	0.00000000
517.68	3.35190000	0.00000000
520.95	3.34250000	0.00000000
524.25	3.33320000	0.00000000
527.60	3.32560000	0.00000000
530.99	3.31880000	0.00000000
534.42	3.31080000	0.00000000
537.90	3.30220000	0.00000000
541.42	3.29450000	0.00000000
544.99	3.28620000	0.00000000
548.61	3.27800000	0.00000000
552.27	3.27070000	0.00000000
555.99	3.26430000	0.00000000
559.75	3.25870000	0.00000000
563.57	3.25170000	0.00000000
567.44	3.24350000	0.00000000
571.36	3.23680000	0.00000000
575.34	3.23180000	0.00000000
579.37	3.22530000	0.00000000
583.46	3.21830000	0.00000000
587.61	3.21270000	0.00000000
591.81	3.20730000	0.00000000
596.08	3.20130000	0.00000000
600.41	3.19460000	0.00000000
604.81	3.18810000	0.00000000
609.26	3.18250000	0.00000000
613.79	3.17620000	0.00000000
618.38	3.16990000	0.00000000
623.04	3.16440000	0.00000000
627.77	3.15970000	0.00000000
632.58	3.15510000	0.00000000
637.46	3.14990000	0.00000000
642.41	3.14480000	0.00000000
647.44	3.13980000	0.00000000
652.55	3.13550000	0.00000000
657.75	3.13130000	0.00000000
663.02	3.12650000	0.00000000
668.38	3.12100000	0.00000000
673.83	3.11500000	0.00000000
679.37	3.10970000	0.00000000
685.00	3.10590000	0.00000000
690.73	3.10210000	0.00000000
696.55	3.09700000	0.00000000
702.47	3.09270000	0.00000000
708.49	3.08980000	0.00000000
714.61	3.08560000	0.00000000
720.84	3.08010000	0.00000000
727.19	3.07610000	0.00000000
733.64	3.07280000	0.00000000
740.21	3.06810000	0.00000000
746.90	3.06420000	0.00000000
753.71	3.06100000	0.00000000
760.65	3.05660000	0.00000000
767.71	3.05220000	0.00000000
774.91	3.04860000	0.00000000
782.24	3.04570000	0.00000000
789.71	3.04280000	0.00000000
797.33	3.03930000	0.00000000
805.10	3.03590000	0.00000000
813.02	3.03250000	0.00000000
821.09	3.02980000	0.00000000
829.33	3.02650000	0.00000000
837.74	3.02260000	0.00000000
846.32	3.02010000	0.00000000
855.07	3.01760000	0.00000000
864.01	3.01450000	0.00000000
873.14	3.01150000	0.00000000
882.46	3.00780000	0.00000000
891.98	3.00350000	0.00000000
901.71	3.00060000	0.00000000
911.66	2.99900000	0.00000000
921.82	2.99690000	0.00000000
932.22	2.99410000	0.00000000
942.85	2.99140000	0.00000000
953.73	2.98870000	0.00000000
964.87	2.98530000	0.00000000
976.26	2.98210000	0.00000000
987.93	2.98020000	0.00000000
