; From SOPRA S.A. http://www.sopra-sa.com/indices.htm
; Filename    Symbol               Range (nm)     Description
; ALAS578T    AlAs                275      987    Aluminum Arsenide (Temp: 578 C)
; lambda/nm       n         k
275.83	4.04200000	3.11530000
276.75	4.08340000	3.06430000
277.68	4.11360000	3.01600000
278.62	4.13270000	2.97260000
279.56	4.14700000	2.93040000
280.51	4.16110000	2.88580000
281.46	4.17240000	2.83960000
282.43	4.18170000	2.79290000
283.39	4.19280000	2.74580000
284.37	4.20670000	2.69810000
285.35	4.21680000	2.65420000
286.34	4.22130000	2.61470000
287.34	4.22380000	2.57790000
288.34	4.22290000	2.54460000
289.35	4.22220000	2.51240000
290.36	4.22420000	2.48190000
291.39	4.22610000	2.45340000
292.42	4.22910000	2.42370000
293.46	4.23280000	2.39210000
294.50	4.23440000	2.36100000
295.55	4.23300000	2.33370000
296.62	4.23230000	2.30980000
297.68	4.23520000	2.28910000
298.76	4.23870000	2.27200000
299.84	4.24110000	2.25530000
300.93	4.24180000	2.23870000
302.03	4.24090000	2.22340000
303.14	4.23970000	2.20760000
304.26	4.23870000	2.19110000
305.38	4.23910000	2.17660000
306.51	4.24320000	2.16440000
307.66	4.25210000	2.15180000
308.80	4.26320000	2.13880000
309.96	4.27420000	2.12670000
311.13	4.28660000	2.11300000
312.31	4.30020000	2.09890000
313.49	4.31450000	2.08650000
314.68	4.33010000	2.07380000
315.89	4.34770000	2.05940000
317.10	4.36840000	2.04480000
318.32	4.39070000	2.03060000
319.55	4.41090000	2.01580000
320.79	4.42860000	1.99850000
322.04	4.44800000	1.97760000
323.30	4.47120000	1.95320000
324.57	4.49300000	1.92690000
325.85	4.51140000	1.89960000
327.14	4.52920000	1.87010000
328.44	4.54760000	1.83850000
329.75	4.56650000	1.80510000
331.07	4.58380000	1.77170000
332.40	4.59850000	1.73900000
333.74	4.61340000	1.70420000
335.10	4.63160000	1.66670000
336.46	4.65190000	1.62840000
337.83	4.67030000	1.58890000
339.22	4.68740000	1.54670000
340.62	4.70420000	1.50260000
342.03	4.71830000	1.45710000
343.45	4.72890000	1.40940000
344.88	4.73620000	1.36160000
346.33	4.73900000	1.31450000
347.78	4.73900000	1.26590000
349.25	4.73820000	1.21680000
350.74	4.73470000	1.16980000
352.23	4.72720000	1.12360000
353.74	4.71790000	1.07610000
355.26	4.70730000	1.02880000
356.79	4.69320000	0.98382000
358.34	4.67600000	0.94133000
359.90	4.65650000	0.90251000
361.47	4.63480000	0.86590000
363.06	4.61330000	0.82946000
364.66	4.59210000	0.79465000
366.28	4.56950000	0.76266000
367.91	4.54570000	0.73184000
369.55	4.52290000	0.70027000
371.21	4.50220000	0.66876000
372.89	4.48180000	0.63867000
374.58	4.46140000	0.60988000
376.28	4.44120000	0.58264000
378.00	4.42100000	0.55678000
379.74	4.40060000	0.53198000
381.49	4.37930000	0.50932000
383.26	4.35710000	0.48988000
385.05	4.33430000	0.47297000
386.85	4.31170000	0.45671000
388.67	4.28960000	0.44008000
390.50	4.26720000	0.42290000
392.36	4.24560000	0.40472000
394.23	4.22520000	0.38605000
396.12	4.20520000	0.36873000
398.03	4.18520000	0.35320000
399.95	4.16540000	0.33886000
401.90	4.14590000	0.32561000
403.86	4.12690000	0.31331000
405.84	4.10830000	0.30148000
407.85	4.08970000	0.28937000
409.87	4.07150000	0.27725000
411.91	4.05430000	0.26542000
413.97	4.03800000	0.25379000
416.06	4.02220000	0.24284000
418.16	4.00680000	0.23232000
420.29	3.99170000	0.22158000
422.44	3.97660000	0.21042000
424.61	3.96070000	0.20001000
426.80	3.94440000	0.19122000
429.01	3.92860000	0.18208000
431.25	3.91440000	0.17157000
433.51	3.90140000	0.16101000
435.80	3.88760000	0.15137000
438.11	3.87160000	0.14268000
440.44	3.85410000	0.13455000
442.80	3.83770000	0.12723000
445.19	3.82260000	0.12094000
447.60	3.80710000	0.11469000
450.04	3.79200000	0.10808000
452.50	3.77740000	0.10150000
454.99	3.76330000	0.09508100
457.51	3.74950000	0.08922100
460.06	3.73540000	0.08440100
462.63	3.72150000	0.08034500
465.24	3.70800000	0.07610200
467.87	3.69420000	0.07130300
470.53	3.68090000	0.06636500
473.23	3.66850000	0.06199900
475.95	3.65760000	0.05746100
478.71	3.64700000	0.05157600
481.50	3.63480000	0.04565700
484.32	3.62140000	0.04071100
487.17	3.60750000	0.03638300
490.06	3.59310000	0.03236200
492.98	3.57980000	0.02889300
495.94	3.56750000	0.02653400
498.93	3.55500000	0.02458900
501.96	3.54380000	0.02224400
505.03	3.53410000	0.01958400
508.14	3.52330000	0.01669100
511.28	3.51110000	0.01367500
514.46	3.50000000	0.01077700
517.68	3.48950000	0.00797800
520.95	3.47760000	0.00506600
524.25	3.46520000	0.00232800
527.60	3.45360000	0.00054700
530.99	3.44290000	0.00000000
534.42	3.43190000	0.00000000
537.90	3.42090000	0.00000000
541.42	3.41110000	0.00000000
544.99	3.40100000	0.00000000
548.61	3.39120000	0.00000000
552.27	3.38230000	0.00000000
555.99	3.37430000	0.00000000
559.75	3.36700000	0.00000000
563.57	3.35880000	0.00000000
567.44	3.34960000	0.00000000
571.36	3.34170000	0.00000000
575.34	3.33530000	0.00000000
579.37	3.32780000	0.00000000
583.46	3.31990000	0.00000000
587.61	3.31330000	0.00000000
591.81	3.30700000	0.00000000
596.08	3.30010000	0.00000000
600.41	3.29270000	0.00000000
604.81	3.28550000	0.00000000
609.26	3.27900000	0.00000000
613.79	3.27200000	0.00000000
618.38	3.26520000	0.00000000
623.04	3.25900000	0.00000000
627.77	3.25360000	0.00000000
632.58	3.24830000	0.00000000
637.46	3.24250000	0.00000000
642.41	3.23690000	0.00000000
647.44	3.23130000	0.00000000
652.55	3.22630000	0.00000000
657.75	3.22150000	0.00000000
663.02	3.21620000	0.00000000
668.38	3.21050000	0.00000000
673.83	3.20420000	0.00000000
679.37	3.19850000	0.00000000
685.00	3.19420000	0.00000000
690.73	3.18990000	0.00000000
696.55	3.18450000	0.00000000
702.47	3.17980000	0.00000000
708.49	3.17640000	0.00000000
714.61	3.17180000	0.00000000
720.84	3.16610000	0.00000000
727.19	3.16170000	0.00000000
733.64	3.15790000	0.00000000
740.21	3.15300000	0.00000000
746.90	3.14880000	0.00000000
753.71	3.14530000	0.00000000
760.65	3.14060000	0.00000000
767.71	3.13600000	0.00000000
774.91	3.13210000	0.00000000
782.24	3.12880000	0.00000000
789.71	3.12560000	0.00000000
797.33	3.12190000	0.00000000
805.10	3.11810000	0.00000000
813.02	3.11450000	0.00000000
821.09	3.11150000	0.00000000
829.33	3.10800000	0.00000000
837.74	3.10400000	0.00000000
846.32	3.10110000	0.00000000
855.07	3.09830000	0.00000000
864.01	3.09500000	0.00000000
873.14	3.09170000	0.00000000
882.46	3.08800000	0.00000000
891.98	3.08370000	0.00000000
901.71	3.08060000	0.00000000
911.66	3.07870000	0.00000000
921.82	3.07630000	0.00000000
932.22	3.07330000	0.00000000
942.85	3.07040000	0.00000000
953.73	3.06750000	0.00000000
964.87	3.06420000	0.00000000
976.26	3.06080000	0.00000000
987.93	3.05870000	0.00000000
