; From SOPRA S.A. http://www.sopra-sa.com/indices.htm
; Filename    Symbol               Range (nm)     Description
; ALAS552T    AlAs                275      987    Aluminum Arsenide (Temp: 552 C)
; lambda/nm       n         k
275.83	4.11160000	3.09570000
276.75	4.13840000	3.04640000
277.68	4.16080000	2.99940000
278.62	4.17870000	2.95400000
279.56	4.19190000	2.91000000
280.51	4.20150000	2.86610000
281.46	4.21000000	2.81900000
282.43	4.21980000	2.76810000
283.39	4.22880000	2.71620000
284.37	4.23400000	2.66720000
285.35	4.23840000	2.62110000
286.34	4.24350000	2.57800000
287.34	4.24710000	2.53920000
288.34	4.24700000	2.50290000
289.35	4.24210000	2.46710000
290.36	4.23720000	2.43270000
291.39	4.23710000	2.40390000
292.42	4.23760000	2.37980000
293.46	4.23400000	2.35780000
294.50	4.22850000	2.33760000
295.55	4.22640000	2.31780000
296.62	4.22940000	2.29770000
297.68	4.23390000	2.27870000
298.76	4.23570000	2.26100000
299.84	4.23670000	2.24390000
300.93	4.24170000	2.22810000
302.03	4.24810000	2.21230000
303.14	4.25080000	2.19480000
304.26	4.25230000	2.17820000
305.38	4.25690000	2.16510000
306.51	4.26390000	2.15420000
307.66	4.27190000	2.14350000
308.80	4.28080000	2.13130000
309.96	4.29030000	2.11810000
311.13	4.30170000	2.10510000
312.31	4.31580000	2.09350000
313.49	4.33150000	2.08140000
314.68	4.34700000	2.06720000
315.89	4.36470000	2.05250000
317.10	4.38600000	2.03780000
318.32	4.40740000	2.02290000
319.55	4.42800000	2.00810000
320.79	4.44990000	1.99190000
322.04	4.47340000	1.97180000
323.30	4.49930000	1.94950000
324.57	4.52700000	1.92650000
325.85	4.55170000	1.89990000
327.14	4.57140000	1.86780000
328.44	4.58880000	1.83200000
329.75	4.60440000	1.79350000
331.07	4.61840000	1.75380000
332.40	4.63260000	1.71480000
333.74	4.64740000	1.67440000
335.10	4.66330000	1.63170000
336.46	4.68150000	1.58910000
337.83	4.70080000	1.54660000
339.22	4.71730000	1.50240000
340.62	4.72980000	1.45720000
342.03	4.73930000	1.41090000
343.45	4.74590000	1.36330000
344.88	4.74920000	1.31520000
346.33	4.75040000	1.26690000
347.78	4.74980000	1.21760000
349.25	4.74620000	1.16760000
350.74	4.73980000	1.11870000
352.23	4.73040000	1.07120000
353.74	4.71850000	1.02420000
355.26	4.70490000	0.97805000
356.79	4.68940000	0.93353000
358.34	4.67160000	0.89123000
359.90	4.65180000	0.85152000
361.47	4.63110000	0.81431000
363.06	4.61020000	0.77958000
364.66	4.58800000	0.74703000
366.28	4.56420000	0.71644000
367.91	4.53920000	0.68780000
369.55	4.51510000	0.66019000
371.21	4.49270000	0.63280000
372.89	4.47080000	0.60628000
374.58	4.44850000	0.58141000
376.28	4.42620000	0.55799000
378.00	4.40410000	0.53552000
379.74	4.38160000	0.51391000
381.49	4.35860000	0.49314000
383.26	4.33580000	0.47287000
385.05	4.31340000	0.45334000
386.85	4.29170000	0.43443000
388.67	4.27080000	0.41565000
390.50	4.25040000	0.39772000
392.36	4.23030000	0.38104000
394.23	4.21070000	0.36522000
396.12	4.19100000	0.34978000
398.03	4.17100000	0.33476000
399.95	4.15110000	0.32114000
401.90	4.13180000	0.30831000
403.86	4.11290000	0.29548000
405.84	4.09450000	0.28321000
407.85	4.07630000	0.27167000
409.87	4.05870000	0.26065000
411.91	4.04190000	0.24991000
413.97	4.02580000	0.23947000
416.06	4.00980000	0.22980000
418.16	3.99420000	0.22089000
420.29	3.97860000	0.21188000
422.44	3.96240000	0.20199000
424.61	3.94550000	0.19148000
426.80	3.92890000	0.18161000
429.01	3.91380000	0.17325000
431.25	3.90080000	0.16560000
433.51	3.88840000	0.15778000
435.80	3.87490000	0.14966000
438.11	3.85940000	0.14166000
440.44	3.84270000	0.13418000
442.80	3.82730000	0.12742000
445.19	3.81290000	0.12156000
447.60	3.79810000	0.11635000
450.04	3.78430000	0.11105000
452.50	3.77150000	0.10520000
454.99	3.75910000	0.09908200
457.51	3.74730000	0.09341800
460.06	3.73520000	0.08848400
462.63	3.72370000	0.08355100
465.24	3.71220000	0.07757800
467.87	3.69960000	0.07038700
470.53	3.68640000	0.06283500
473.23	3.67270000	0.05593200
475.95	3.65950000	0.05054300
478.71	3.64760000	0.04605400
481.50	3.63580000	0.04106600
484.32	3.62300000	0.03583400
487.17	3.60910000	0.03107900
490.06	3.59470000	0.02715900
492.98	3.58210000	0.02377300
495.94	3.57060000	0.02021200
498.93	3.55780000	0.01663900
501.96	3.54570000	0.01318600
505.03	3.53490000	0.00975300
508.14	3.52260000	0.00619200
511.28	3.50830000	0.00272000
514.46	3.49470000	0.00055800
517.68	3.48220000	0.00000000
520.95	3.46970000	0.00000000
524.25	3.45790000	0.00000000
527.60	3.44780000	0.00000000
530.99	3.43880000	0.00000000
534.42	3.42900000	0.00000000
537.90	3.41880000	0.00000000
541.42	3.40950000	0.00000000
544.99	3.39990000	0.00000000
548.61	3.39050000	0.00000000
552.27	3.38200000	0.00000000
555.99	3.37430000	0.00000000
559.75	3.36740000	0.00000000
563.57	3.35950000	0.00000000
567.44	3.35050000	0.00000000
571.36	3.34290000	0.00000000
575.34	3.33670000	0.00000000
579.37	3.32940000	0.00000000
583.46	3.32170000	0.00000000
587.61	3.31530000	0.00000000
591.81	3.30910000	0.00000000
596.08	3.30240000	0.00000000
600.41	3.29520000	0.00000000
604.81	3.28820000	0.00000000
609.26	3.28180000	0.00000000
613.79	3.27500000	0.00000000
618.38	3.26830000	0.00000000
623.04	3.26240000	0.00000000
627.77	3.25710000	0.00000000
632.58	3.25180000	0.00000000
637.46	3.24620000	0.00000000
642.41	3.24060000	0.00000000
647.44	3.23510000	0.00000000
652.55	3.23040000	0.00000000
657.75	3.22570000	0.00000000
663.02	3.22060000	0.00000000
668.38	3.21480000	0.00000000
673.83	3.20860000	0.00000000
679.37	3.20300000	0.00000000
685.00	3.19880000	0.00000000
690.73	3.19460000	0.00000000
696.55	3.18930000	0.00000000
702.47	3.18470000	0.00000000
708.49	3.18130000	0.00000000
714.61	3.17690000	0.00000000
720.84	3.17130000	0.00000000
727.19	3.16700000	0.00000000
733.64	3.16330000	0.00000000
740.21	3.15850000	0.00000000
746.90	3.15440000	0.00000000
753.71	3.15090000	0.00000000
760.65	3.14630000	0.00000000
767.71	3.14180000	0.00000000
774.91	3.13790000	0.00000000
782.24	3.13470000	0.00000000
789.71	3.13160000	0.00000000
797.33	3.12790000	0.00000000
805.10	3.12420000	0.00000000
813.02	3.12070000	0.00000000
821.09	3.11770000	0.00000000
829.33	3.11430000	0.00000000
837.74	3.11030000	0.00000000
846.32	3.10750000	0.00000000
855.07	3.10480000	0.00000000
864.01	3.10160000	0.00000000
873.14	3.09840000	0.00000000
882.46	3.09470000	0.00000000
891.98	3.09040000	0.00000000
901.71	3.08740000	0.00000000
911.66	3.08560000	0.00000000
921.82	3.08320000	0.00000000
932.22	3.08030000	0.00000000
942.85	3.07740000	0.00000000
953.73	3.07460000	0.00000000
964.87	3.07120000	0.00000000
976.26	3.06800000	0.00000000
987.93	3.06590000	0.00000000
