; Refractive index spectrum for AlSb by Zollner
;
; S. Zollner et al.. The dielectric function of AlSb from 1.4 to 5.8 eV determined by spectroscopic ellipsometry , <a href="http://dx.doi.org/10.1063/1.343888"><i>J. Appl. Phys.</i> <b>66</b>, 383-387 (1989)</a>
;
; 300 K
;
; lambda/nm    n     k
213.80 	1.000000 	2.400000 
217.50 	1.010000 	2.420000 
221.40 	1.040000 	2.460000 
225.40 	1.090000 	2.520000 
229.60 	1.170000 	2.580000 
233.90 	1.260000 	2.590000 
238.40 	1.310000 	2.580000 
243.10 	1.310000 	2.590000 
248.00 	1.300000 	2.640000 
253.00 	1.290000 	2.720000 
258.30 	1.300000 	2.840000 
263.80 	1.330000 	2.990000 
269.50 	1.380000 	3.160000 
275.50 	1.450000 	3.390000 
281.80 	1.590000 	3.700000 
288.30 	1.960000 	4.070000 
295.20 	2.600000 	4.220000 
302.40 	3.150000 	4.000000 
310.00 	3.500000 	3.710000 
317.90 	3.710000 	3.400000 
326.30 	3.810000 	3.160000 
335.10 	3.910000 	2.970000 
344.40 	3.960000 	2.810000 
354.20 	3.950000 	2.690000 
364.70 	3.970000 	2.640000 
375.70 	4.140000 	2.690000 
387.50 	4.510000 	2.470000 
399.90 	4.570000 	2.120000 
413.30 	4.520000 	1.970000 
427.50 	4.660000 	2.060000 
442.80 	5.270000 	1.580000 
459.20 	5.080000 	0.920000 
476.90 	4.810000 	0.630000 
495.90 	4.610000 	0.460000 
516.60 	4.440000 	0.330000 
539.10 	4.310000 	0.240000 
563.60 	4.200000 	0.010000 
590.40 	4.010000 	0.006000 
619.90 	3.900000 	0.004000 
652.50 	3.810000 	0.003000 
688.80 	3.730000 	0.002000 
729.30 	3.660000 	0.001000 
774.90 	3.600000 	0.000300 
826.60 	3.540000 	0.000200 
885.60 	3.500000 	0.000100 
