; From SOPRA S.A. http://www.sopra-sa.com/indices.htm
; Filename    Symbol               Range (nm)     Description
; ALSI        AlSi                250      800    Aluminum Silicon
; lambda/nm       n         k
250.00	0.16901600	2.14244500
255.00	0.17861900	2.19537900
260.00	0.18800400	2.24820200
265.00	0.19699100	2.30082400
270.00	0.20546600	2.35318600
275.00	0.21339600	2.40527000
280.00	0.22082400	2.45709000
285.00	0.22785300	2.50868200
290.00	0.23462000	2.56008700
295.00	0.24127000	2.61134600
300.00	0.24793700	2.66248800
305.00	0.25472700	2.71352600
310.00	0.26171300	2.76446400
315.00	0.26893400	2.81529600
320.00	0.27639700	2.86601400
325.00	0.28408700	2.91660900
330.00	0.29197300	2.96707900
335.00	0.30001700	3.01743300
340.00	0.30818100	3.06768800
345.00	0.31643400	3.11786800
350.00	0.32475100	3.16799300
355.00	0.33312100	3.21807400
360.00	0.34154500	3.26810200
365.00	0.35003900	3.31804500
370.00	0.35863600	3.36785000
375.00	0.36737700	3.41745300
380.00	0.37630800	3.46678700
385.00	0.38547100	3.51580400
390.00	0.39488900	3.56447800
395.00	0.40456100	3.61281400
400.00	0.41445900	3.66083900
405.00	0.42453200	3.70859700
410.00	0.43472500	3.75613100
415.00	0.44498700	3.80347900
420.00	0.45529400	3.85065900
425.00	0.46564900	3.89767800
430.00	0.47608500	3.94452800
435.00	0.48665100	3.99119300
440.00	0.49739500	4.03765300
445.00	0.50835200	4.08388900
450.00	0.51952900	4.12988700
455.00	0.53091200	4.17564000
460.00	0.54246400	4.22116100
465.00	0.55414800	4.26648900
470.00	0.56593400	4.31168100
475.00	0.57781100	4.35682200
480.00	0.58979100	4.40200600
485.00	0.60190100	4.44732900
490.00	0.61417200	4.49287400
495.00	0.62663000	4.53870000
500.00	0.63928700	4.58483100
505.00	0.65214200	4.63126000
510.00	0.66518200	4.67794400
515.00	0.67839800	4.72481100
520.00	0.69178700	4.77177000
525.00	0.70535400	4.81872400
530.00	0.71911500	4.86558000
535.00	0.73308400	4.91225900
540.00	0.74727000	4.95870200
545.00	0.76167200	5.00486500
550.00	0.77627800	5.05071600
555.00	0.79106700	5.09622600
560.00	0.80602200	5.14136500
565.00	0.82113600	5.18610200
570.00	0.83641800	5.23041000
575.00	0.85190600	5.27427400
580.00	0.86765900	5.31770000
585.00	0.88375800	5.36071800
590.00	0.90029300	5.40338400
595.00	0.91734900	5.44577000
600.00	0.93499200	5.48795500
605.00	0.95325100	5.53000200
610.00	0.97211700	5.57194400
615.00	0.99153800	5.61377100
620.00	1.01143000	5.65542200
625.00	1.03169200	5.69679500
630.00	1.05222100	5.73775900
635.00	1.07294200	5.77818300
640.00	1.09381400	5.81796600
645.00	1.11484600	5.85705600
650.00	1.13609200	5.89546000
655.00	1.15763500	5.93324000
660.00	1.17957100	5.97049000
665.00	1.20198900	6.00730500
670.00	1.22495600	6.04375300
675.00	1.24851600	6.07985900
680.00	1.27269000	6.11559700
685.00	1.29748900	6.15090700
690.00	1.32292200	6.18570100
695.00	1.34900200	6.21989400
700.00	1.37575000	6.25340300
705.00	1.40319200	6.28615000
710.00	1.43135900	6.31805000
715.00	1.46028200	6.34899800
720.00	1.48999100	6.37885100
725.00	1.52050500	6.40742600
730.00	1.55181700	6.43450200
735.00	1.58388100	6.45982900
740.00	1.61659200	6.48314900
745.00	1.64978400	6.50421000
750.00	1.68323300	6.52280000
755.00	1.71667900	6.53876100
760.00	1.74985200	6.55201000
765.00	1.78250300	6.56255800
770.00	1.81443600	6.57051800
775.00	1.84552400	6.57610100
780.00	1.87572100	6.57960500
785.00	1.90507100	6.58139600
790.00	1.93369700	6.58188000
795.00	1.96179600	6.58148800
800.00	1.98961700	6.58065900
