; From SOPRA S.A. http://www.sopra-sa.com/indices.htm
; Filename    Symbol               Range (nm)     Description
; ALSITI      AlSiTi              250      800    Aluminum Silicon Titanium
; lambda/nm       n         k
250.00	0.19939100	2.14723200
255.00	0.20711700	2.20159900
260.00	0.21479300	2.25579000
265.00	0.22237900	2.30965200
270.00	0.22985300	2.36307500
275.00	0.23721300	2.41599300
280.00	0.24447800	2.46839200
285.00	0.25168000	2.52029700
290.00	0.25885900	2.57175400
295.00	0.26605900	2.62282000
300.00	0.27332300	2.67354400
305.00	0.28069000	2.72396200
310.00	0.28819800	2.77409600
315.00	0.29588100	2.82395700
320.00	0.30376700	2.87355000
325.00	0.31188100	2.92288600
330.00	0.32024100	2.97198600
335.00	0.32885300	3.02088200
340.00	0.33771400	3.06961800
345.00	0.34680600	3.11824100
350.00	0.35609800	3.16679400
355.00	0.36555200	3.21530700
360.00	0.37512400	3.26379500
365.00	0.38477900	3.31225300
370.00	0.39449500	3.36066200
375.00	0.40427300	3.40899000
380.00	0.41413600	3.45719700
385.00	0.42412600	3.50524900
390.00	0.43429700	3.55311300
395.00	0.44469400	3.60077400
400.00	0.45534400	3.64822900
405.00	0.46624600	3.69548700
410.00	0.47737100	3.74256700
415.00	0.48866300	3.78948700
420.00	0.50006300	3.83625800
425.00	0.51151000	3.88287700
430.00	0.52296700	3.92932400
435.00	0.53441600	3.97556700
440.00	0.54586500	4.02156300
445.00	0.55734100	4.06727200
450.00	0.56888000	4.11266700
455.00	0.58052000	4.15773800
460.00	0.59229600	4.20250400
465.00	0.60423600	4.24701400
470.00	0.61635700	4.29134500
475.00	0.62866300	4.33559900
480.00	0.64114600	4.37988800
485.00	0.65378100	4.42432000
490.00	0.66653100	4.46898600
495.00	0.67935800	4.51394300
500.00	0.69222800	4.55920600
505.00	0.70512400	4.60474300
510.00	0.71805700	4.65047000
515.00	0.73106600	4.69627000
520.00	0.74421800	4.74199600
525.00	0.75759000	4.78750100
530.00	0.77126300	4.83265700
535.00	0.78529700	4.87737600
540.00	0.79973200	4.92161700
545.00	0.81457900	4.96539400
550.00	0.82982500	5.00876200
555.00	0.84544300	5.05179700
560.00	0.86140100	5.09457800
565.00	0.87766300	5.13716700
570.00	0.89419500	5.17959200
575.00	0.91095900	5.22184500
580.00	0.92791800	5.26388400
585.00	0.94503500	5.30564100
590.00	0.96228200	5.34703200
595.00	0.97964600	5.38798500
600.00	0.99713700	5.42845100
605.00	1.01478900	5.46842600
610.00	1.03265700	5.50795100
615.00	1.05080400	5.54710600
620.00	1.06929800	5.58598500
625.00	1.08819300	5.62467600
630.00	1.10752700	5.66323300
635.00	1.12731900	5.70166300
640.00	1.14756600	5.73993100
645.00	1.16825500	5.77796700
650.00	1.18935800	5.81569300
655.00	1.21084700	5.85302500
660.00	1.23269900	5.88988500
665.00	1.25490200	5.92620200
670.00	1.27745900	5.96190300
675.00	1.30039000	5.99691200
680.00	1.32372700	6.03115500
685.00	1.34751000	6.06457500
690.00	1.37177400	6.09713700
695.00	1.39654200	6.12884100
700.00	1.42181900	6.15971200
705.00	1.44758800	6.18978100
710.00	1.47381600	6.21906100
715.00	1.50046000	6.24751800
720.00	1.52747100	6.27505200
725.00	1.55480400	6.30150100
730.00	1.58241800	6.32664700
735.00	1.61026600	6.35024200
740.00	1.63829300	6.37203200
745.00	1.66642500	6.39178300
750.00	1.69456700	6.40929600
755.00	1.72261200	6.42442100
760.00	1.75045000	6.43707100
765.00	1.77799200	6.44723300
770.00	1.80518000	6.45496900
775.00	1.83199900	6.46043000
780.00	1.85847300	6.46385300
785.00	1.88465700	6.46555100
790.00	1.91062300	6.46590000
795.00	1.93644700	6.46532600
800.00	1.96220000	6.46428200
