; From SOPRA S.A. http://www.sopra-sa.com/indices.htm
; Filename    Symbol               Range (nm)     Description
; ARACHI
; lambda/nm       n         k
250.00	1.65027300	0.00000000
256.50	1.62512600	0.00000000
263.00	1.60578100	0.00000000
269.50	1.59122900	0.00000000
276.00	1.58064100	0.00000000
282.50	1.57333300	0.00000000
289.00	1.56873800	0.00000000
295.50	1.56638600	0.00000000
302.00	1.56588600	0.00000000
308.50	1.56691200	0.00000000
315.00	1.56919000	0.00000000
321.50	1.57249300	0.00000000
328.00	1.57663100	0.00000000
334.50	1.58144200	0.00000000
341.00	1.58679200	0.00000000
347.50	1.59256800	0.00000000
354.00	1.59867500	0.00000000
360.50	1.60503300	0.00000000
367.00	1.61157600	0.00000000
373.50	1.61824600	0.00000000
380.00	1.62499700	0.00000000
386.50	1.63178900	0.00000000
393.00	1.63858900	0.00000000
399.50	1.64537000	0.00000000
406.00	1.65210800	0.00000000
412.50	1.65878600	0.00000000
419.00	1.66538700	0.00000000
425.50	1.67189900	0.00000000
432.00	1.67831200	0.00000000
438.50	1.68461800	0.00000000
445.00	1.69081100	0.00000000
451.50	1.69688500	0.00000000
458.00	1.70283800	0.00000000
464.50	1.70866700	0.00000000
471.00	1.71437000	0.00000000
477.50	1.71994700	0.00000000
484.00	1.72539800	0.00000000
490.50	1.73072200	0.00000000
497.00	1.73592100	0.00000000
503.50	1.74099600	0.00000000
510.00	1.74594900	0.00000000
516.50	1.75078100	0.00000000
523.00	1.75549500	0.00000000
529.50	1.76009200	0.00000000
536.00	1.76457500	0.00000000
542.50	1.76894700	0.00000000
549.00	1.77320900	0.00000000
555.50	1.77736400	0.00000000
562.00	1.78141500	0.00000000
568.50	1.78536500	0.00000000
575.00	1.78921500	0.00000000
581.50	1.79296900	0.00000000
588.00	1.79662800	0.00000000
594.50	1.80019700	0.00000000
601.00	1.80367600	0.00000000
607.50	1.80706800	0.00000000
614.00	1.81037600	0.00000000
620.50	1.81360200	0.00000000
627.00	1.81674900	0.00000000
633.50	1.81981800	0.00000000
640.00	1.82281200	0.00000000
646.50	1.82573300	0.00000000
653.00	1.82858300	0.00000000
659.50	1.83136300	0.00000000
666.00	1.83407700	0.00000000
672.50	1.83672600	0.00000000
679.00	1.83931100	0.00000000
685.50	1.84183500	0.00000000
692.00	1.84430000	0.00000000
698.50	1.84670600	0.00000000
705.00	1.84905600	0.00000000
711.50	1.85135200	0.00000000
718.00	1.85359400	0.00000000
724.50	1.85578400	0.00000000
731.00	1.85792500	0.00000000
737.50	1.86001600	0.00000000
744.00	1.86206100	0.00000000
750.50	1.86405800	0.00000000
757.00	1.86601200	0.00000000
763.50	1.86792200	0.00000000
770.00	1.86978900	0.00000000
776.50	1.87161500	0.00000000
783.00	1.87340200	0.00000000
789.50	1.87514900	0.00000000
796.00	1.87685800	0.00000000
802.50	1.87853100	0.00000000
809.00	1.88016800	0.00000000
815.50	1.88177000	0.00000000
822.00	1.88333800	0.00000000
828.50	1.88487300	0.00000000
835.00	1.88637600	0.00000000
841.50	1.88784700	0.00000000
848.00	1.88928800	0.00000000
854.50	1.89070000	0.00000000
861.00	1.89208200	0.00000000
867.50	1.89343700	0.00000000
874.00	1.89476400	0.00000000
880.50	1.89606400	0.00000000
887.00	1.89733900	0.00000000
893.50	1.89858800	0.00000000
900.00	1.89981200	0.00000000
