;UO 
;UO As2S3-v.ASC: Values of n and k for vitreous arsenic sulfide from
;UO various references in HOCI (pg. 657).  References are 7, 8, 9,
;UO 10, 11, 12, 13, 15, 16. 
;UO 
;UO From HANDBOOK OF OPTICAL CONSTANTS IN SOLIDS edited by Edward D.
;UO Palik. Copyright (c) 1985 by Academic Press, Inc. Reproduced by
;UO permission of the publisher.
;UO ---------------------------------------------------------------   
;UO        nm        n        k
;UO ---------------------------------------------------------------	
;N  3
;L    Wavelength[nm]        n        k
220.00	2.10000000	1.24000000
230.00	2.20000000	1.23000000
240.00	2.34000000	1.22000000
250.00	2.48000000	1.21000000
260.00	2.60000000	1.19000000
270.00	2.73000000	1.15000000
280.00	2.79000000	1.11000000
290.00	2.85000000	1.05000000
300.00	2.90000000	1.01000000
310.00	2.98000000	0.95000000
320.00	3.02000000	0.89000000
330.00	3.05000000	0.82000000
340.00	3.07000000	0.73000000
350.00	3.09000000	0.66000000
360.00	3.10000000	0.61000000
370.00	3.11000000	0.55000000
380.00	3.11000000	0.49000000
390.00	3.10000000	0.42000000
400.00	3.09000000	0.34000000
410.00	3.06000000	0.28000000
420.00	3.04000000	0.24000000
430.00	3.02000000	0.20000000
440.00	3.00000000	0.16000000
442.80	3.00000000	0.15000000
444.40	2.99000000	0.15000000
446.00	2.99000000	0.14000000
447.60	2.99000000	0.14000000
449.20	2.99000000	0.13000000
450.80	2.98000000	0.12600000
452.50	2.98000000	0.12200000
454.20	2.98000000	0.11700000
455.80	2.97000000	0.11200000
457.50	2.97000000	0.10500000
459.20	2.97000000	0.09900000
460.90	2.96000000	0.09600000
462.60	2.96000000	0.09100000
464.40	2.95000000	0.08400000
466.10	2.95000000	0.07800000
467.90	2.94000000	0.07600000
469.60	2.94000000	0.07100000
471.40	2.93000000	0.06700000
473.20	2.93000000	0.06000000
475.00	2.92000000	0.05500000
476.90	2.92000000	0.05200000
478.70	2.91000000	0.04700000
480.60	2.90000000	0.04400000
482.40	2.89000000	0.04000000
484.30	2.89000000	0.03500000
486.20	2.88000000	0.03000000
488.10	2.88000000	0.02600000
490.10	2.87000000	0.02200000
492.00	2.87000000	0.01900000
494.00	2.86000000	0.01700000
495.90	2.85000000	0.01600000
497.90	2.84000000	0.01400000
499.90	2.83000000	0.01300000
502.00	2.82000000	0.01100000
504.00	2.82000000	0.00980000
506.10	2.81000000	0.00870000
508.10	2.80000000	0.00800000
510.20	2.80000000	0.00700000
512.30	2.79000000	0.00640000
514.50	2.78000000	0.00550000
516.60	2.78000000	0.00470000
518.80	2.77000000	0.00410000
520.90	2.76000000	0.00360000
523.10	2.76000000	0.00320000
525.40	2.76000000	0.00270000
527.60	2.75000000	0.00240000
529.80	2.74000000	0.00210000
532.10	2.73000000	0.00180000
534.40	2.72000000	0.00160000
536.70	2.72000000	0.00130000
539.10	2.72000000	0.00110000
541.40	2.71000000	0.00092000
543.80	2.71000000	0.00081000
546.20	2.70000000	0.00070000
548.60	2.70000000	0.00060000
551.00	2.70000000	0.00051000
553.50	2.69000000	0.00043000
556.00	2.69000000	0.00038000
558.50	2.69000000	0.00033000
560.00	2.69000000	0.00024000
580.00	2.66000000	0.00005600
600.00	2.64000000	0.00001500
620.00	2.62000000	0.00000510
640.00	2.60000000	0.00000260
660.00	2.59000000	0.00000170
680.00	2.57000000	0.00000150
700.00	2.56000000	0.00000120
720.00	2.55000000	0.00000103
740.00	2.54000000	0.00000091
760.00	2.53000000	0.00000074
780.00	2.53000000	0.00000065
800.00	2.52000000	0.00000062
820.00	2.51000000	0.0
840.00	2.51000000	0.0
860.00	2.50000000	0.0
880.00	2.50000000	0.0
900.00	2.50000000	0.0
920.00	2.49000000	0.0
940.00	2.49000000	0.0
960.00	2.48000000	0.0
980.00	2.48000000	0.0
1000.00	2.48000000	0.00000024
1200.00	2.46000000	0.0
1400.00	2.44000000	0.0
1600.00	2.44000000	0.0
1800.00	2.43000000	0.0
2000.00	2.43000000	0.0
2200.00	2.42000000	0.0
2400.00	2.42000000	0.0
