; Refractive index spectrum for Au by Johnson
;
; P. B. Johnson and R. W. Christy. Optical Constants of the Noble Metals, <a href="http://dx.doi.org/10.1103/PhysRevB.6.4370"><i>Phys. Rev. B</i> <b>6</b>, 4370-4379 (1972)</a>
;
; Room temperature
;
; lambda/nm    n     k
187.90 	1.280000 	1.188000 
191.60 	1.320000 	1.203000 
195.30 	1.340000 	1.226000 
199.30 	1.330000 	1.251000 
203.30 	1.330000 	1.277000 
207.30 	1.300000 	1.304000 
211.90 	1.300000 	1.350000 
216.40 	1.300000 	1.387000 
221.40 	1.300000 	1.427000 
226.20 	1.310000 	1.460000 
231.30 	1.300000 	1.497000 
237.10 	1.320000 	1.536000 
242.60 	1.320000 	1.577000 
249.00 	1.330000 	1.631000 
255.10 	1.330000 	1.688000 
261.60 	1.350000 	1.749000 
268.90 	1.380000 	1.803000 
276.10 	1.430000 	1.847000 
284.40 	1.470000 	1.869000 
292.40 	1.490000 	1.878000 
300.90 	1.530000 	1.889000 
310.70 	1.530000 	1.893000 
320.40 	1.540000 	1.898000 
331.50 	1.480000 	1.883000 
342.50 	1.480000 	1.871000 
354.20 	1.500000 	1.866000 
367.90 	1.480000 	1.895000 
381.50 	1.460000 	1.933000 
397.40 	1.470000 	1.952000 
413.30 	1.460000 	1.958000 
430.50 	1.450000 	1.948000 
450.90 	1.380000 	1.914000 
471.40 	1.310000 	1.849000 
495.90 	1.040000 	1.833000 
520.90 	0.620000 	2.081000 
548.60 	0.430000 	2.455000 
582.10 	0.290000 	2.863000 
616.80 	0.210000 	3.272000 
659.50 	0.140000 	3.697000 
704.50 	0.130000 	4.103000 
756.00 	0.140000 	4.542000 
821.10 	0.160000 	5.083000 
892.00 	0.170000 	5.663000 
984.00 	0.220000 	6.350000 
1088.00 	0.270000 	7.150000 
1216.00 	0.350000 	8.145000 
1393.00 	0.430000 	9.519000 
1610.00 	0.560000 	11.210000 
1937.00 	0.920000 	13.780000 
