; Refractive index spectrum for Au by Lemarchand-4.62nm
;
; F. Lemarchand, <i>private communications</i> (2013). Index determination is performed using method explained in:<br>L. Gao, F. Lemarchand, and M. Lequime. Comparison of different dispersion models for single layer optical thin film index determination, <a href="http://dx.doi.org/10.1016/j.tsf.2011.07.028"><i>Thin Solid Films</i> <b>520</b>, 501â€“509 (2011)</a>
;
; 4.62-nm monolayer deposited using the magnetron sputtering technique; thicknesses determined by X-ray diffraction.
;
; lambda/nm    n     k
350.00 	2.154754 	1.727237 
355.00 	2.111899 	1.753805 
360.00 	2.073636 	1.781674 
365.00 	2.039875 	1.810199 
370.00 	2.010440 	1.838737 
375.00 	1.985061 	1.866668 
380.00 	1.963381 	1.893412 
385.00 	1.944961 	1.918441 
390.00 	1.929283 	1.941299 
395.00 	1.915765 	1.961611 
400.00 	1.903771 	1.979099 
405.00 	1.892632 	1.993589 
410.00 	1.881656 	2.005022 
415.00 	1.870155 	2.013452 
420.00 	1.857461 	2.019050 
425.00 	1.842949 	2.022101 
430.00 	1.826059 	2.022989 
435.00 	1.806307 	2.022189 
440.00 	1.783307 	2.020250 
445.00 	1.756778 	2.017773 
450.00 	1.726548 	2.015395 
455.00 	1.692563 	2.013765 
460.00 	1.654880 	2.013529 
465.00 	1.613667 	2.015307 
470.00 	1.569195 	2.019675 
475.00 	1.521829 	2.027153 
480.00 	1.472016 	2.038185 
485.00 	1.420273 	2.053129 
490.00 	1.367167 	2.072239 
495.00 	1.313297 	2.095662 
500.00 	1.259267 	2.123434 
505.00 	1.205668 	2.155476 
510.00 	1.153046 	2.191608 
515.00 	1.101890 	2.231559 
520.00 	1.052608 	2.274990 
525.00 	1.005523 	2.321514 
530.00 	0.960869 	2.370721 
535.00 	0.918798 	2.422197 
540.00 	0.879381 	2.475542 
545.00 	0.842629 	2.530382 
550.00 	0.808500 	2.586377 
555.00 	0.776913 	2.643227 
560.00 	0.747759 	2.700672 
565.00 	0.720911 	2.758490 
570.00 	0.696232 	2.816494 
575.00 	0.673581 	2.874532 
580.00 	0.652816 	2.932478 
585.00 	0.633800 	2.990231 
590.00 	0.616402 	3.047713 
595.00 	0.600495 	3.104862 
600.00 	0.585963 	3.161630 
605.00 	0.572698 	3.217983 
610.00 	0.560597 	3.273897 
615.00 	0.549568 	3.329355 
620.00 	0.539526 	3.384347 
625.00 	0.530391 	3.438868 
630.00 	0.522092 	3.492918 
635.00 	0.514564 	3.546501 
640.00 	0.507746 	3.599622 
645.00 	0.501583 	3.652289 
650.00 	0.496026 	3.704510 
655.00 	0.491029 	3.756298 
660.00 	0.486549 	3.807661 
665.00 	0.482550 	3.858614 
670.00 	0.478995 	3.909166 
675.00 	0.475853 	3.959332 
680.00 	0.473095 	4.009123 
685.00 	0.470694 	4.058552 
690.00 	0.468625 	4.107630 
695.00 	0.466866 	4.156370 
700.00 	0.465396 	4.204784 
705.00 	0.464195 	4.252882 
710.00 	0.463248 	4.300676 
715.00 	0.462536 	4.348177 
720.00 	0.462046 	4.395395 
725.00 	0.461764 	4.442340 
730.00 	0.461676 	4.489022 
735.00 	0.461771 	4.535450 
740.00 	0.462039 	4.581634 
745.00 	0.462469 	4.627581 
750.00 	0.463052 	4.673300 
755.00 	0.463779 	4.718799 
760.00 	0.464642 	4.764086 
765.00 	0.465634 	4.809168 
770.00 	0.466748 	4.854052 
775.00 	0.467977 	4.898745 
780.00 	0.469315 	4.943254 
785.00 	0.470757 	4.987584 
790.00 	0.472297 	5.031742 
795.00 	0.473930 	5.075733 
800.00 	0.475653 	5.119563 
805.00 	0.477459 	5.163237 
810.00 	0.479347 	5.206760 
815.00 	0.481311 	5.250137 
820.00 	0.483348 	5.293373 
825.00 	0.485456 	5.336472 
830.00 	0.487630 	5.379438 
835.00 	0.489867 	5.422276 
840.00 	0.492166 	5.464990 
845.00 	0.494524 	5.507583 
850.00 	0.496938 	5.550058 
855.00 	0.499405 	5.592420 
860.00 	0.501924 	5.634672 
865.00 	0.504493 	5.676817 
870.00 	0.507109 	5.718858 
875.00 	0.509772 	5.760798 
880.00 	0.512478 	5.802640 
885.00 	0.515227 	5.844387 
890.00 	0.518017 	5.886041 
895.00 	0.520846 	5.927606 
900.00 	0.523714 	5.969082 
905.00 	0.526618 	6.010474 
910.00 	0.529558 	6.051783 
915.00 	0.532532 	6.093011 
920.00 	0.535540 	6.134161 
925.00 	0.538580 	6.175234 
930.00 	0.541651 	6.216233 
935.00 	0.544753 	6.257159 
940.00 	0.547884 	6.298015 
945.00 	0.551043 	6.338801 
950.00 	0.554230 	6.379521 
955.00 	0.557444 	6.420175 
960.00 	0.560684 	6.460765 
965.00 	0.563949 	6.501292 
970.00 	0.567240 	6.541759 
975.00 	0.570554 	6.582166 
980.00 	0.573892 	6.622516 
985.00 	0.577253 	6.662808 
990.00 	0.580636 	6.703045 
995.00 	0.584041 	6.743229 
1000.00 	0.587467 	6.783359 
1005.00 	0.590914 	6.823437 
1010.00 	0.594381 	6.863465 
1015.00 	0.597868 	6.903444 
1020.00 	0.601374 	6.943375 
1025.00 	0.604900 	6.983258 
1030.00 	0.608444 	7.023094 
1035.00 	0.612006 	7.062886 
1040.00 	0.615586 	7.102633 
1045.00 	0.619184 	7.142337 
1050.00 	0.622799 	7.181998 
1055.00 	0.626431 	7.221618 
1060.00 	0.630079 	7.261197 
1065.00 	0.633743 	7.300736 
1070.00 	0.637423 	7.340236 
1075.00 	0.641119 	7.379697 
1080.00 	0.644831 	7.419121 
1085.00 	0.648557 	7.458508 
1090.00 	0.652299 	7.497859 
1095.00 	0.656055 	7.537174 
1100.00 	0.659825 	7.576454 
1105.00 	0.663610 	7.615700 
1110.00 	0.667408 	7.654913 
1115.00 	0.671221 	7.694093 
1120.00 	0.675047 	7.733240 
1125.00 	0.678886 	7.772356 
1130.00 	0.682739 	7.811440 
1135.00 	0.686604 	7.850494 
1140.00 	0.690483 	7.889518 
1145.00 	0.694374 	7.928512 
1150.00 	0.698277 	7.967477 
1155.00 	0.702193 	8.006414 
1160.00 	0.706121 	8.045322 
1165.00 	0.710062 	8.084203 
1170.00 	0.714014 	8.123057 
1175.00 	0.717978 	8.161884 
1180.00 	0.721953 	8.200685 
1185.00 	0.725940 	8.239460 
1190.00 	0.729939 	8.278210 
1195.00 	0.733949 	8.316935 
1200.00 	0.737970 	8.355635 
1205.00 	0.742002 	8.394311 
1210.00 	0.746045 	8.432963 
1215.00 	0.750098 	8.471591 
1220.00 	0.754163 	8.510197 
1225.00 	0.758238 	8.548779 
1230.00 	0.762323 	8.587340 
1235.00 	0.766420 	8.625878 
1240.00 	0.770526 	8.664394 
1245.00 	0.774643 	8.702889 
1250.00 	0.778769 	8.741363 
1255.00 	0.782906 	8.779816 
1260.00 	0.787053 	8.818249 
1265.00 	0.791210 	8.856661 
1270.00 	0.795376 	8.895054 
1275.00 	0.799553 	8.933426 
1280.00 	0.803739 	8.971780 
1285.00 	0.807950 	9.010110 
1290.00 	0.813781 	9.048038 
1295.00 	0.819635 	9.085941 
1300.00 	0.825512 	9.123819 
1305.00 	0.831412 	9.161674 
1310.00 	0.837334 	9.199506 
1315.00 	0.843278 	9.237314 
1320.00 	0.849246 	9.275098 
1325.00 	0.855235 	9.312860 
1330.00 	0.861248 	9.350599 
1335.00 	0.867282 	9.388315 
1340.00 	0.873339 	9.426008 
1345.00 	0.879418 	9.463679 
1350.00 	0.885520 	9.501328 
1355.00 	0.891643 	9.538955 
1360.00 	0.897789 	9.576561 
1365.00 	0.903957 	9.614144 
1370.00 	0.910147 	9.651706 
1375.00 	0.916359 	9.689247 
1380.00 	0.922593 	9.726767 
1385.00 	0.928849 	9.764265 
1390.00 	0.935126 	9.801743 
1395.00 	0.941426 	9.839200 
1400.00 	0.947747 	9.876636 
1405.00 	0.954091 	9.914052 
1410.00 	0.960455 	9.951447 
1415.00 	0.966842 	9.988822 
1420.00 	0.973250 	10.026177 
1425.00 	0.979680 	10.063512 
1430.00 	0.986132 	10.100828 
1435.00 	0.992605 	10.138123 
1440.00 	0.999099 	10.175399 
1445.00 	1.005615 	10.212655 
1450.00 	1.012153 	10.249892 
1455.00 	1.018711 	10.287110 
1460.00 	1.025292 	10.324309 
1465.00 	1.031893 	10.361488 
1470.00 	1.038516 	10.398648 
1475.00 	1.045160 	10.435790 
1480.00 	1.051826 	10.472913 
1485.00 	1.058512 	10.510017 
1490.00 	1.065220 	10.547102 
1495.00 	1.071949 	10.584169 
1500.00 	1.078699 	10.621218 
1505.00 	1.085470 	10.658248 
1510.00 	1.092262 	10.695260 
1515.00 	1.099075 	10.732253 
1520.00 	1.105909 	10.769229 
1525.00 	1.112765 	10.806187 
1530.00 	1.119641 	10.843126 
1535.00 	1.126538 	10.880048 
1540.00 	1.133455 	10.916952 
1545.00 	1.140394 	10.953839 
1550.00 	1.147354 	10.990707 
1555.00 	1.154334 	11.027558 
1560.00 	1.161335 	11.064392 
1565.00 	1.168357 	11.101208 
1570.00 	1.175399 	11.138007 
1575.00 	1.182463 	11.174788 
1580.00 	1.189546 	11.211552 
1585.00 	1.196651 	11.248299 
1590.00 	1.203776 	11.285029 
1595.00 	1.210922 	11.321742 
1600.00 	1.218088 	11.358438 
1605.00 	1.225275 	11.395116 
1610.00 	1.232482 	11.431778 
1615.00 	1.239710 	11.468423 
1620.00 	1.246958 	11.505052 
1625.00 	1.254226 	11.541663 
1630.00 	1.261515 	11.578258 
1635.00 	1.268825 	11.614836 
1640.00 	1.276154 	11.651397 
1645.00 	1.283504 	11.687942 
1650.00 	1.290874 	11.724470 
1655.00 	1.298265 	11.760982 
1660.00 	1.305676 	11.797478 
1665.00 	1.313107 	11.833957 
1670.00 	1.320558 	11.870420 
1675.00 	1.328029 	11.906866 
1680.00 	1.335520 	11.943296 
1685.00 	1.343032 	11.979710 
1690.00 	1.350564 	12.016108 
1695.00 	1.358115 	12.052489 
1700.00 	1.365687 	12.088855 
1705.00 	1.373279 	12.125204 
1710.00 	1.380891 	12.161537 
1715.00 	1.388522 	12.197855 
1720.00 	1.396174 	12.234156 
1725.00 	1.403845 	12.270441 
1730.00 	1.411537 	12.306711 
1735.00 	1.419248 	12.342964 
1740.00 	1.426979 	12.379202 
1745.00 	1.434730 	12.415424 
1750.00 	1.442501 	12.451630 
1755.00 	1.450292 	12.487820 
1760.00 	1.458102 	12.523995 
1765.00 	1.465932 	12.560154 
1770.00 	1.473782 	12.596297 
1775.00 	1.481651 	12.632424 
1780.00 	1.489540 	12.668536 
1785.00 	1.497449 	12.704632 
1790.00 	1.505377 	12.740713 
1795.00 	1.513325 	12.776778 
1800.00 	1.521293 	12.812828 
