; Refractive index spectrum for Au by Lemarchand-3.96nm
;
; F. Lemarchand, <i>private communications</i> (2013). Index determination is performed using method explained in:<br>L. Gao, F. Lemarchand, and M. Lequime. Comparison of different dispersion models for single layer optical thin film index determination, <a href="http://dx.doi.org/10.1016/j.tsf.2011.07.028"><i>Thin Solid Films</i> <b>520</b>, 501â€“509 (2011)</a>
;
; 3.96-nm monolayer deposited using the magnetron sputtering technique; thicknesses determined by X-ray diffraction.
;
; lambda/nm    n     k
350.00 	2.191997 	1.667962 
355.00 	2.110026 	1.718195 
360.00 	2.043732 	1.767524 
365.00 	1.990877 	1.814590 
370.00 	1.949369 	1.858374 
375.00 	1.917279 	1.898148 
380.00 	1.892838 	1.933431 
385.00 	1.874427 	1.963943 
390.00 	1.860575 	1.989576 
395.00 	1.849940 	2.010365 
400.00 	1.841307 	2.026479 
405.00 	1.833584 	2.038202 
410.00 	1.825804 	2.045918 
415.00 	1.817124 	2.050106 
420.00 	1.806831 	2.051315 
425.00 	1.794345 	2.050152 
430.00 	1.779220 	2.047262 
435.00 	1.761142 	2.043308 
440.00 	1.739920 	2.038954 
445.00 	1.715485 	2.034844 
450.00 	1.687876 	2.031590 
455.00 	1.657227 	2.029758 
460.00 	1.623758 	2.029856 
465.00 	1.587759 	2.032326 
470.00 	1.549576 	2.037538 
475.00 	1.509598 	2.045787 
480.00 	1.468245 	2.057289 
485.00 	1.425951 	2.072181 
490.00 	1.383152 	2.090521 
495.00 	1.340272 	2.112294 
500.00 	1.297714 	2.137419 
505.00 	1.255844 	2.165752 
510.00 	1.214987 	2.197100 
515.00 	1.175419 	2.231232 
520.00 	1.137361 	2.267891 
525.00 	1.100984 	2.306803 
530.00 	1.066408 	2.347691 
535.00 	1.033706 	2.390284 
540.00 	1.002910 	2.434321 
545.00 	0.974017 	2.479561 
550.00 	0.946999 	2.525781 
555.00 	0.921801 	2.572783 
560.00 	0.898356 	2.620390 
565.00 	0.876585 	2.668450 
570.00 	0.856400 	2.716829 
575.00 	0.837712 	2.765416 
580.00 	0.820428 	2.814115 
585.00 	0.804459 	2.862846 
590.00 	0.789717 	2.911545 
595.00 	0.776115 	2.960157 
600.00 	0.763574 	3.008639 
605.00 	0.752017 	3.056957 
610.00 	0.741372 	3.105084 
615.00 	0.731573 	3.152998 
620.00 	0.722557 	3.200683 
625.00 	0.714265 	3.248130 
630.00 	0.706645 	3.295329 
635.00 	0.699647 	3.342277 
640.00 	0.693225 	3.388971 
645.00 	0.687337 	3.435411 
650.00 	0.681943 	3.481598 
655.00 	0.677009 	3.527536 
660.00 	0.672501 	3.573227 
665.00 	0.668388 	3.618676 
670.00 	0.664644 	3.663889 
675.00 	0.661241 	3.708871 
680.00 	0.658157 	3.753628 
685.00 	0.655368 	3.798166 
690.00 	0.652856 	3.842492 
695.00 	0.650602 	3.886611 
700.00 	0.648587 	3.930530 
705.00 	0.646797 	3.974256 
710.00 	0.645217 	4.017795 
715.00 	0.643833 	4.061153 
720.00 	0.642633 	4.104336 
725.00 	0.641604 	4.147349 
730.00 	0.640737 	4.190199 
735.00 	0.640020 	4.232892 
740.00 	0.639446 	4.275432 
745.00 	0.639005 	4.317826 
750.00 	0.638688 	4.360077 
755.00 	0.638490 	4.402191 
760.00 	0.638402 	4.444173 
765.00 	0.638418 	4.486027 
770.00 	0.638533 	4.527758 
775.00 	0.638740 	4.569370 
780.00 	0.639035 	4.610866 
785.00 	0.639412 	4.652252 
790.00 	0.639867 	4.693530 
795.00 	0.640395 	4.734704 
800.00 	0.640993 	4.775778 
805.00 	0.641657 	4.816755 
810.00 	0.642383 	4.857638 
815.00 	0.643167 	4.898431 
820.00 	0.644008 	4.939136 
825.00 	0.644901 	4.979755 
830.00 	0.645845 	5.020293 
835.00 	0.646836 	5.060751 
840.00 	0.647873 	5.101132 
845.00 	0.648952 	5.141438 
850.00 	0.650072 	5.181672 
855.00 	0.651231 	5.221836 
860.00 	0.652426 	5.261931 
865.00 	0.653657 	5.301961 
870.00 	0.654921 	5.341927 
875.00 	0.656216 	5.381830 
880.00 	0.657542 	5.421673 
885.00 	0.658896 	5.461458 
890.00 	0.660278 	5.501186 
895.00 	0.661686 	5.540859 
900.00 	0.663119 	5.580478 
905.00 	0.664576 	5.620045 
910.00 	0.666055 	5.659561 
915.00 	0.667556 	5.699028 
920.00 	0.669077 	5.738446 
925.00 	0.670619 	5.777818 
930.00 	0.672179 	5.817145 
935.00 	0.673757 	5.856427 
940.00 	0.675352 	5.895666 
945.00 	0.676964 	5.934863 
950.00 	0.678591 	5.974019 
955.00 	0.680234 	6.013136 
960.00 	0.681891 	6.052213 
965.00 	0.683561 	6.091252 
970.00 	0.685245 	6.130255 
975.00 	0.686942 	6.169221 
980.00 	0.688650 	6.208152 
985.00 	0.690370 	6.247048 
990.00 	0.692102 	6.285911 
995.00 	0.693843 	6.324741 
1000.00 	0.695595 	6.363539 
1005.00 	0.697357 	6.402305 
1010.00 	0.699128 	6.441041 
1015.00 	0.700908 	6.479747 
1020.00 	0.702697 	6.518424 
1025.00 	0.704494 	6.557071 
1030.00 	0.706298 	6.595691 
1035.00 	0.708111 	6.634284 
1040.00 	0.709930 	6.672849 
1045.00 	0.711757 	6.711388 
1050.00 	0.713590 	6.749902 
1055.00 	0.715430 	6.788390 
1060.00 	0.717275 	6.826853 
1065.00 	0.719127 	6.865292 
1070.00 	0.720984 	6.903708 
1075.00 	0.722847 	6.942100 
1080.00 	0.724715 	6.980469 
1085.00 	0.726588 	7.018816 
1090.00 	0.728466 	7.057141 
1095.00 	0.730348 	7.095444 
1100.00 	0.732235 	7.133726 
1105.00 	0.734126 	7.171988 
1110.00 	0.736021 	7.210229 
1115.00 	0.737920 	7.248450 
1120.00 	0.739823 	7.286651 
1125.00 	0.741730 	7.324833 
1130.00 	0.743639 	7.362996 
1135.00 	0.745552 	7.401141 
1140.00 	0.747469 	7.439267 
1145.00 	0.749388 	7.477375 
1150.00 	0.751310 	7.515466 
1155.00 	0.753235 	7.553539 
1160.00 	0.755163 	7.591595 
1165.00 	0.757093 	7.629634 
1170.00 	0.759026 	7.667656 
1175.00 	0.760961 	7.705663 
1180.00 	0.762898 	7.743653 
1185.00 	0.764837 	7.781627 
1190.00 	0.766779 	7.819586 
1195.00 	0.768722 	7.857530 
1200.00 	0.770667 	7.895459 
1205.00 	0.772614 	7.933372 
1210.00 	0.774563 	7.971272 
1215.00 	0.776514 	8.009156 
1220.00 	0.778465 	8.047027 
1225.00 	0.780419 	8.084884 
1230.00 	0.782374 	8.122727 
1235.00 	0.784330 	8.160556 
1240.00 	0.786287 	8.198372 
1245.00 	0.788246 	8.236175 
1250.00 	0.792754 	8.273362 
1255.00 	0.798545 	8.310231 
1260.00 	0.804358 	8.347079 
1265.00 	0.810194 	8.383905 
1270.00 	0.816052 	8.420710 
1275.00 	0.821933 	8.457494 
1280.00 	0.827835 	8.494258 
1285.00 	0.833760 	8.531000 
1290.00 	0.839707 	8.567722 
1295.00 	0.845677 	8.604424 
1300.00 	0.851668 	8.641106 
1305.00 	0.857681 	8.677767 
1310.00 	0.863717 	8.714408 
1315.00 	0.869774 	8.751030 
1320.00 	0.875854 	8.787631 
1325.00 	0.881955 	8.824213 
1330.00 	0.888078 	8.860775 
1335.00 	0.894223 	8.897318 
1340.00 	0.900389 	8.933841 
1345.00 	0.906577 	8.970345 
1350.00 	0.912787 	9.006830 
1355.00 	0.919019 	9.043295 
1360.00 	0.925272 	9.079742 
1365.00 	0.931547 	9.116169 
1370.00 	0.937843 	9.152578 
1375.00 	0.944161 	9.188968 
1380.00 	0.950500 	9.225339 
1385.00 	0.956861 	9.261692 
1390.00 	0.963243 	9.298026 
1395.00 	0.969647 	9.334342 
1400.00 	0.976071 	9.370639 
1405.00 	0.982517 	9.406919 
1410.00 	0.988985 	9.443179 
1415.00 	0.995473 	9.479422 
1420.00 	1.001983 	9.515647 
1425.00 	1.008514 	9.551853 
1430.00 	1.015066 	9.588042 
1435.00 	1.021639 	9.624212 
1440.00 	1.028234 	9.660365 
1445.00 	1.034849 	9.696500 
1450.00 	1.041486 	9.732618 
1455.00 	1.048143 	9.768717 
1460.00 	1.054821 	9.804799 
1465.00 	1.061521 	9.840864 
1470.00 	1.068241 	9.876911 
1475.00 	1.074982 	9.912940 
1480.00 	1.081744 	9.948953 
1485.00 	1.088526 	9.984948 
1490.00 	1.095330 	10.020925 
1495.00 	1.102154 	10.056885 
1500.00 	1.108999 	10.092828 
1505.00 	1.115865 	10.128754 
1510.00 	1.122752 	10.164663 
1515.00 	1.129659 	10.200555 
1520.00 	1.136587 	10.236430 
1525.00 	1.143535 	10.272287 
1530.00 	1.150504 	10.308128 
1535.00 	1.157493 	10.343952 
1540.00 	1.164503 	10.379759 
1545.00 	1.171534 	10.415549 
1550.00 	1.178585 	10.451323 
1555.00 	1.185657 	10.487079 
1560.00 	1.192748 	10.522819 
1565.00 	1.199861 	10.558542 
1570.00 	1.206994 	10.594249 
1575.00 	1.214147 	10.629939 
1580.00 	1.221320 	10.665612 
1585.00 	1.228514 	10.701269 
1590.00 	1.235728 	10.736909 
1595.00 	1.242962 	10.772533 
1600.00 	1.250216 	10.808140 
1605.00 	1.257491 	10.843731 
1610.00 	1.264786 	10.879305 
1615.00 	1.272101 	10.914864 
1620.00 	1.279436 	10.950405 
1625.00 	1.286791 	10.985930 
1630.00 	1.294167 	11.021439 
1635.00 	1.301562 	11.056932 
1640.00 	1.308978 	11.092409 
1645.00 	1.316413 	11.127869 
1650.00 	1.323869 	11.163313 
1655.00 	1.331344 	11.198741 
1660.00 	1.338839 	11.234152 
1665.00 	1.346355 	11.269548 
1670.00 	1.353890 	11.304927 
1675.00 	1.361445 	11.340290 
1680.00 	1.369020 	11.375637 
1685.00 	1.376614 	11.410968 
1690.00 	1.384229 	11.446283 
1695.00 	1.391863 	11.481582 
1700.00 	1.399517 	11.516865 
1705.00 	1.407191 	11.552132 
1710.00 	1.414884 	11.587383 
1715.00 	1.422598 	11.622618 
1720.00 	1.430330 	11.657837 
1725.00 	1.438083 	11.693040 
1730.00 	1.445855 	11.728227 
1735.00 	1.453646 	11.763398 
1740.00 	1.461458 	11.798554 
1745.00 	1.469288 	11.833693 
1750.00 	1.477139 	11.868817 
1755.00 	1.485008 	11.903924 
1760.00 	1.492897 	11.939016 
1765.00 	1.500806 	11.974092 
1770.00 	1.508734 	12.009152 
1775.00 	1.516682 	12.044197 
1780.00 	1.524648 	12.079225 
1785.00 	1.532635 	12.114238 
1790.00 	1.540640 	12.149235 
1795.00 	1.548665 	12.184216 
1800.00 	1.556709 	12.219182 
