;  Optical constants for polycrystalline Au
; 
;   taken from:
;
;   'Handbook of Optical Constants of Solids', Ed. by Edward D. Palik,
;   Academic Press, Inc., 1985.
;   
;    Lambda (nm)            n            k
;-----------------------------------------
100.96	1.20700000	0.84200000
101.96	1.21000000	0.84800000
102.97	1.21300000	0.85300000
104.01	1.21500000	0.86000000
104.98	1.21700000	0.86500000
105.97	1.21700000	0.87000000
106.97	1.21800000	0.87800000
108.00	1.21800000	0.88500000
109.04	1.22000000	0.89300000
110.01	1.22200000	0.90000000
110.99	1.22300000	0.90700000
112.00	1.22500000	0.91400000
113.02	1.22800000	0.92200000
113.95	1.23200000	0.92700000
115.01	1.23700000	0.93200000
115.98	1.24200000	0.93500000
116.96	1.24700000	0.94200000
117.96	1.25000000	0.95000000
118.98	1.25500000	0.95500000
120.02	1.26000000	0.96200000
120.96	1.26500000	0.96700000
122.03	1.27000000	0.97500000
123.00	1.27500000	0.98200000
123.98	1.28000000	0.98700000
124.99	1.28500000	0.99400000
126.00	1.29000000	1.00000000
126.99	1.29500000	1.00500000
128.00	1.30000000	1.01200000
129.00	1.30400000	1.01700000
130.00	1.30800000	1.02000000
130.99	1.31300000	1.02700000
131.99	1.31800000	1.03200000
133.00	1.32300000	1.03800000
133.99	1.32800000	1.04500000
135.00	1.33300000	1.05000000
135.99	1.33800000	1.05300000
136.99	1.34500000	1.05800000
138.00	1.35000000	1.06300000
138.99	1.35500000	1.06700000
140.00	1.36000000	1.07200000
144.99	1.38600000	1.08900000
149.99	1.41900000	1.10200000
154.99	1.45000000	1.10800000
160.00	1.48300000	1.10600000
165.00	1.51200000	1.09300000
170.00	1.51900000	1.07000000
174.99	1.50000000	1.07000000
179.99	1.47000000	1.08500000
184.99	1.44200000	1.10700000
189.98	1.42700000	1.13500000
195.00	1.42400000	1.17000000
200.00	1.42700000	1.21500000
206.63	1.42200000	1.30600000
210.14	1.43000000	1.33400000
213.76	1.43200000	1.36400000
217.51	1.43800000	1.38800000
221.39	1.44200000	1.41800000
225.42	1.45200000	1.44200000
229.59	1.45400000	1.47800000
233.93	1.46200000	1.51000000
238.42	1.47000000	1.55000000
243.10	1.47800000	1.59000000
247.96	1.48400000	1.63600000
253.02	1.49000000	1.69800000
258.29	1.50400000	1.74800000
263.79	1.54600000	1.78400000
269.52	1.59800000	1.82200000
275.51	1.64800000	1.85200000
281.77	1.69000000	1.88200000
288.33	1.74200000	1.90000000
295.19	1.77600000	1.91800000
302.39	1.81200000	1.92000000
309.95	1.83000000	1.91600000
317.90	1.84000000	1.90400000
326.26	1.82400000	1.87800000
335.08	1.79800000	1.86000000
344.39	1.76600000	1.84600000
354.23	1.74000000	1.84800000
364.65	1.71600000	1.86200000
375.70	1.69600000	1.90600000
387.44	1.67400000	1.93600000
399.94	1.65800000	1.95600000
413.27	1.63600000	1.95800000
427.52	1.61600000	1.94000000
442.79	1.56200000	1.90400000
459.19	1.42600000	1.84600000
476.85	1.24200000	1.79600000
495.92	0.91600000	1.84000000
516.58	0.60800000	2.12000000
539.04	0.40200000	2.54000000
563.54	0.30600000	2.88000000
652.53	0.16600000	3.15000000
688.78	0.16000000	3.80000000
729.29	0.16400000	4.35000000
774.88	0.17400000	4.86000000
826.53	0.18800000	5.39000000
885.57	0.21000000	5.88000000
953.69	0.23600000	6.47000000
1033.17	0.27200000	7.07000000
1127.09	0.31200000	7.93000000
1239.80	0.37200000	8.77000000
1265.10	0.38900000	8.09000000
1291.46	0.40300000	8.25000000
1318.94	0.41900000	8.42000000
1347.61	0.43600000	8.59000000
1377.56	0.45400000	8.77000000
1377.56	0.45800000	9.72000000
1408.86	0.47300000	8.96000000
1441.63	0.49300000	9.15000000
1475.95	0.51500000	9.36000000
1511.95	0.53700000	9.58000000
1549.75	0.55900000	9.81000000
1549.75	0.55000000	11.50000000
1589.49	0.58300000	10.10000000
1631.32	0.60900000	10.30000000
1675.41	0.63600000	10.60000000
1721.94	0.66500000	10.90000000
1771.14	0.69600000	11.20000000
1771.14	0.72600000	12.90000000
1823.24	0.73000000	11.50000000
1878.48	0.76700000	11.90000000
1937.19	0.80700000	12.20000000
1999.68	0.85000000	12.60000000
2066.33	0.89600000	13.00000000
2066.33	0.97600000	15.10000000
2137.59	0.94700000	13.40000000
2213.93	1.00200000	13.90000000
2295.93	1.06300000	14.40000000
2384.23	1.13000000	14.90000000
2479.60	1.20500000	15.50000000
