; Refractive index spectrum for Au by Rakic
;
; A. D. Rakić, A. B. Djurišic, J. M. Elazar, and M. L. Majewski. Optical properties of metallic films for vertical-cavity optoelectronic devices, <a href="http://dx.doi.org/10.1364/AO.37.005271"><i>Appl. Opt.</i> <b>37</b>, 5271-5283 (1998)</a>
;
; Fit of the experimental data from several sources to Brendel-Bormann (BB) model
;
; lambda/nm    n     k
206.60 	1.25223321 	1.98591656 
210.90 	1.28860502 	1.97534779 
215.28 	1.32053986 	1.96597778 
219.75 	1.34888336 	1.95853719 
224.32 	1.37462843 	1.95347480 
228.99 	1.39882611 	1.95092055 
233.75 	1.42248550 	1.95067979 
238.61 	1.44647562 	1.95226227 
243.57 	1.47144313 	1.95494273 
248.63 	1.49775669 	1.95784421 
253.80 	1.52548341 	1.96003112 
259.08 	1.55439629 	1.96059923 
264.46 	1.58400639 	1.95875241 
269.96 	1.61361081 	1.95386084 
275.57 	1.64234733 	1.94549986 
281.30 	1.66924858 	1.93347278 
287.15 	1.69329166 	1.91782321 
293.12 	1.71344306 	1.89884349 
299.21 	1.72870317 	1.87708470 
305.43 	1.73815865 	1.85337048 
311.78 	1.74105369 	1.82881025 
318.27 	1.73689001 	1.80479849 
324.88 	1.72555779 	1.78297652 
331.64 	1.70748408 	1.76512629 
338.53 	1.68376051 	1.75296936 
345.57 	1.65618696 	1.74786631 
352.75 	1.62715564 	1.75045823 
360.09 	1.59932634 	1.76035122 
367.57 	1.57512082 	1.77598262 
375.21 	1.55616625 	1.79477454 
383.01 	1.54287330 	1.81356930 
390.98 	1.53428803 	1.82921618 
399.10 	1.52823564 	1.83912927 
407.40 	1.52166603 	1.84168457 
415.87 	1.51107621 	1.83641651 
424.52 	1.49291226 	1.82404633 
433.34 	1.46390382 	1.80640361 
442.35 	1.42132874 	1.78630032 
451.55 	1.36323722 	1.76739565 
460.93 	1.28868531 	1.75405730 
470.52 	1.19803128 	1.75117198 
480.30 	1.09330562 	1.76378472 
490.28 	0.97852317 	1.79639800 
500.48 	0.85957506 	1.85189192 
510.88 	0.74328888 	1.93046772 
521.50 	0.63579066 	2.02941584 
532.34 	0.54109335 	2.14408291 
543.41 	0.46073916 	2.26939106 
554.71 	0.39437392 	2.40097284 
566.24 	0.34059302 	2.53559992 
578.01 	0.29760560 	2.67112775 
590.03 	0.26362106 	2.80625689 
602.30 	0.23702801 	2.94028331 
614.82 	0.21645384 	3.07289809 
627.60 	0.20076547 	3.20404294 
640.65 	0.18904534 	3.33381143 
653.96 	0.18055928 	3.46238343 
667.56 	0.17472439 	3.58998262 
681.44 	0.17107998 	3.71684964 
695.60 	0.16926273 	3.84322569 
710.07 	0.16898613 	3.96934310 
724.83 	0.17002384 	4.09542034 
739.90 	0.17219635 	4.22165999 
755.28 	0.17536058 	4.34824844 
770.98 	0.17940164 	4.47535658 
787.01 	0.18422651 	4.60314118 
803.37 	0.18975920 	4.73174636 
820.07 	0.19593697 	4.86130521 
837.12 	0.20270748 	4.99194136 
854.52 	0.21002662 	5.12377036 
872.29 	0.21785688 	5.25690101 
890.42 	0.22616605 	5.39143643 
908.93 	0.23492629 	5.52747510 
927.83 	0.24411339 	5.66511167 
947.12 	0.25370623 	5.80443769 
966.81 	0.26368635 	5.94554228 
986.91 	0.27403761 	6.08851257 
1007.43 	0.28474600 	6.23343421 
1028.37 	0.29579938 	6.38039176 
1049.75 	0.30718741 	6.52946895 
1071.57 	0.31890137 	6.68074902 
1093.85 	0.33093414 	6.83431491 
1116.59 	0.34328008 	6.99024947 
1139.80 	0.35593503 	7.14863565 
1163.50 	0.36889622 	7.30955659 
1187.69 	0.38216231 	7.47309583 
1212.38 	0.39573329 	7.63933731 
1237.58 	0.40961052 	7.80836555 
1263.31 	0.42379671 	7.98026569 
1289.57 	0.43829587 	8.15512355 
1316.38 	0.45311335 	8.33302573 
1343.75 	0.46825582 	8.51405961 
1371.69 	0.48373126 	8.69831345 
1400.20 	0.49954893 	8.88587642 
1429.31 	0.51571945 	9.07683860 
1459.03 	0.53225470 	9.27129107 
1489.36 	0.54916791 	9.46932595 
1520.32 	0.56647359 	9.67103636 
1551.93 	0.58418759 	9.87651654 
1584.19 	0.60232707 	10.08586183 
1617.13 	0.62091053 	10.29916870 
1650.75 	0.63995779 	10.51653483 
1685.06 	0.65949003 	10.73805907 
1720.10 	0.67952980 	10.96384152 
1755.85 	0.70010099 	11.19398353 
1792.36 	0.72122893 	11.42858776 
1829.62 	0.74294030 	11.66775818 
1867.66 	0.76526325 	11.91160013 
1906.48 	0.78822737 	12.16022030 
1946.12 	0.81186373 	12.41372683 
1986.58 	0.83620488 	12.67222929 
2027.88 	0.86128492 	12.93583869 
