; Refractive index spectrum for Be by Rakic
;
; A. D. Rakić, A. B. Djurišic, J. M. Elazar, and M. L. Majewski. Optical properties of metallic films for vertical-cavity optoelectronic devices, <a href="http://dx.doi.org/10.1364/AO.37.005271"><i>Appl. Opt.</i> <b>37</b>, 5271-5283 (1998)</a>
;
; Fit of the experimental data from several sources to Brendel-Bormann (BB) model
;
; lambda/nm    n     k
206.60 	1.12386321 	2.66456760 
210.90 	1.17801439 	2.70658521 
215.28 	1.23367934 	2.74688426 
219.75 	1.29071345 	2.78535092 
224.32 	1.34896021 	2.82188793 
228.99 	1.40825373 	2.85641587 
233.75 	1.46842143 	2.88887387 
238.61 	1.52928672 	2.91921993 
243.57 	1.59067156 	2.94743075 
248.63 	1.65239891 	2.97350125 
253.80 	1.71429490 	2.99744369 
259.08 	1.77619081 	3.01928652 
264.46 	1.83792475 	3.03907307 
269.96 	1.89934304 	3.05686004 
275.57 	1.96030129 	3.07271592 
281.30 	2.02066524 	3.08671934 
287.15 	2.08031126 	3.09895746 
293.12 	2.13912669 	3.10952442 
299.21 	2.19700988 	3.11851974 
305.43 	2.25387012 	3.12604702 
311.78 	2.30962734 	3.13221257 
318.27 	2.36421173 	3.13712423 
324.88 	2.41756321 	3.14089040 
331.64 	2.46963087 	3.14361906 
338.53 	2.52037234 	3.14541705 
345.57 	2.56975309 	3.14638938 
352.75 	2.61774577 	3.14663872 
360.09 	2.66432952 	3.14626495 
367.57 	2.70948926 	3.14536488 
375.21 	2.75321507 	3.14403198 
383.01 	2.79550154 	3.14235624 
390.98 	2.83634717 	3.14042408 
399.10 	2.87575379 	3.13831834 
407.40 	2.91372608 	3.13611827 
415.87 	2.95027105 	3.13389965 
424.52 	2.98539759 	3.13173486 
433.34 	3.01911609 	3.12969302 
442.35 	3.05143806 	3.12784016 
451.55 	3.08237580 	3.12623939 
460.93 	3.11194209 	3.12495109 
470.52 	3.14014997 	3.12403315 
480.30 	3.16701244 	3.12354110 
490.28 	3.19254233 	3.12352841 
500.48 	3.21675207 	3.12404668 
510.88 	3.23965357 	3.12514584 
521.50 	3.26125806 	3.12687441 
532.34 	3.28157602 	3.12927969 
543.41 	3.30061709 	3.13240800 
554.71 	3.31838996 	3.13630491 
566.24 	3.33490237 	3.14101541 
578.01 	3.35016107 	3.14658419 
590.03 	3.36417176 	3.15305579 
602.30 	3.37693916 	3.16047486 
614.82 	3.38846696 	3.16888631 
627.60 	3.39875791 	3.17833556 
640.65 	3.40781379 	3.18886874 
653.96 	3.41563554 	3.20053282 
667.56 	3.42222332 	3.21337589 
681.44 	3.42757658 	3.22744727 
695.60 	3.43169416 	3.24279774 
710.07 	3.43457446 	3.25947968 
724.83 	3.43621555 	3.27754728 
739.90 	3.43661531 	3.29705663 
755.28 	3.43577165 	3.31806593 
770.98 	3.43368268 	3.34063561 
787.01 	3.43034694 	3.36482842 
803.37 	3.42576361 	3.39070960 
820.07 	3.41993277 	3.41834687 
837.12 	3.41285571 	3.44781060 
854.52 	3.40453516 	3.47917378 
872.29 	3.39497563 	3.51251202 
890.42 	3.38418374 	3.54790357 
908.93 	3.37216851 	3.58542924 
927.83 	3.35894175 	3.62517226 
947.12 	3.34451835 	3.66721818 
966.81 	3.32891664 	3.71165463 
986.91 	3.31215875 	3.75857111 
1007.43 	3.29427085 	3.80805865 
1028.37 	3.27528349 	3.86020945 
1049.75 	3.25523181 	3.91511652 
1071.57 	3.23415577 	3.97287316 
1093.85 	3.21210028 	4.03357249 
1116.59 	3.18911525 	4.09730690 
1139.80 	3.16525562 	4.16416747 
1163.50 	3.14058127 	4.23424339 
1187.69 	3.11515684 	4.30762138 
1212.38 	3.08905145 	4.38438508 
1237.58 	3.06233838 	4.46461453 
1263.31 	3.03509456 	4.54838564 
1289.57 	3.00740008 	4.63576979 
1316.38 	2.97933757 	4.72683343 
1343.75 	2.95099153 	4.82163783 
1371.69 	2.92244765 	4.92023891 
1400.20 	2.89379204 	5.02268718 
1429.31 	2.86511053 	5.12902782 
1459.03 	2.83648798 	5.23930080 
1489.36 	2.80800753 	5.35354119 
1520.32 	2.77975006 	5.47177951 
1551.93 	2.75179362 	5.59404216 
1584.19 	2.72421290 	5.72035196 
1617.13 	2.69707894 	5.85072869 
1650.75 	2.67045876 	5.98518971 
1685.06 	2.64441522 	6.12375054 
1720.10 	2.61900688 	6.26642548 
1755.85 	2.59428797 	6.41322822 
1792.36 	2.57030845 	6.56417239 
1829.62 	2.54711414 	6.71927212 
1867.66 	2.52474688 	6.87854250 
1906.48 	2.50324475 	7.04200007 
1946.12 	2.48264232 	7.20966315 
1986.58 	2.46297095 	7.38155227 
2027.88 	2.44425910 	7.55769038 
