; From SOPRA S.A. http://www.sopra-sa.com/indices.htm
; Filename    Symbol               Range (nm)     Description
; CO_2        Co                  187     1907    Cobalt (hexagon thin films)
; lambda/nm       n         k
187.86	1.16000000	1.59000000
189.29	1.17986300	1.60431100
190.75	1.19881900	1.61929900
192.23	1.21690800	1.63484000
193.73	1.23416500	1.65081400
195.25	1.25063000	1.66709600
196.80	1.26634000	1.68356600
198.38	1.28133300	1.70010000
199.98	1.29564600	1.71657600
201.60	1.30931800	1.73287100
203.25	1.32238700	1.74886400
204.93	1.33489000	1.76443100
206.64	1.34686500	1.77945100
208.38	1.35834900	1.79380000
210.14	1.36938200	1.80735800
211.94	1.38000000	1.82000000
213.77	1.39221500	1.82792700
215.63	1.40406000	1.83475400
217.52	1.41541100	1.84065700
219.44	1.42614700	1.84581200
221.40	1.43614500	1.85039600
223.40	1.44528200	1.85458400
225.43	1.45343700	1.85855300
227.50	1.46048700	1.86247900
229.60	1.46630800	1.86653800
231.75	1.47002300	1.87116000
233.93	1.46945300	1.87720500
236.16	1.46788400	1.88371300
238.43	1.46549800	1.89075800
240.75	1.46248200	1.89841400
243.11	1.45902000	1.90675400
245.52	1.45529800	1.91585100
247.97	1.45149900	1.92577900
250.48	1.44883200	1.93717200
253.03	1.44702300	1.94985100
255.64	1.44538700	1.96341500
258.30	1.44392700	1.97783700
261.02	1.44264300	1.99309100
263.80	1.44153700	2.00915000
266.63	1.44061100	2.02598800
269.53	1.43991900	2.04356400
272.49	1.43961600	2.06181500
275.52	1.43946200	2.08077400
278.62	1.43943000	2.10042000
281.78	1.43949200	2.12073400
285.02	1.43962000	2.14169600
288.34	1.43978700	2.16328800
291.73	1.43996600	2.18548800
295.20	1.43936700	2.20834900
298.76	1.43878200	2.23177400
302.40	1.43855600	2.25571100
306.14	1.43882600	2.28012400
309.96	1.43973100	2.30497900
313.89	1.44208000	2.32912600
317.91	1.44534700	2.35363400
322.04	1.44928900	2.37909800
326.28	1.45383800	2.40582500
330.63	1.45892400	2.43412400
335.10	1.46432900	2.46562100
339.69	1.47013700	2.49927900
344.40	1.47636500	2.53463900
349.25	1.48299300	2.57158500
354.24	1.49000000	2.61000000
359.38	1.49631200	2.64973900
364.66	1.50321500	2.69071800
370.11	1.51096300	2.73282900
375.71	1.51980800	2.77595900
381.49	1.53000000	2.82000000
387.45	1.54248000	2.86504000
393.60	1.55664000	2.91072000
399.95	1.57256000	2.95688000
406.51	1.59032000	3.00336000
413.28	1.61000000	3.05000000
420.29	1.63328000	3.09472000
427.54	1.65824000	3.13976000
435.04	1.68456000	3.18544000
442.80	1.71192000	3.23208000
450.86	1.74000000	3.28000000
459.20	1.76629700	3.33172500
467.87	1.79322000	3.38481900
476.87	1.82099400	3.43905000
486.22	1.84984600	3.49418700
495.94	1.88000000	3.55000000
506.06	1.91508700	3.60639700
516.60	1.95097300	3.66296700
527.60	1.98698800	3.71944200
539.07	2.02246100	3.77555300
551.05	2.05658400	3.83042200
563.57	2.08851900	3.88304700
576.68	2.11857600	3.93745500
590.41	2.14589700	3.99650500
604.81	2.17093300	4.05914500
619.93	2.19467000	4.12191400
635.82	2.21771000	4.18181200
652.55	2.24068700	4.24397600
670.19	2.26354800	4.31294400
688.81	2.28789500	4.38787900
708.49	2.31637000	4.46517900
729.32	2.35132300	4.54251700
751.43	2.39138300	4.62330300
774.91	2.43795700	4.70866400
799.90	2.48844300	4.80053600
826.57	2.54000000	4.90152300
855.07	2.59000000	5.01446200
885.61	2.64000000	5.13509300
918.41	2.68792400	5.25887700
953.73	2.73727600	5.38912300
991.88	2.79141000	5.52943600
1033.21	2.85317200	5.68292900
1078.13	2.92441700	5.84624200
1127.14	3.01206600	6.02013400
1180.81	3.10945600	6.20042300
1239.85	3.21012600	6.38031800
1305.11	3.30964400	6.55765200
1377.61	3.40528600	6.74009300
1458.65	3.48621600	6.93657100
1549.81	3.56353200	7.14034500
1653.14	3.64529400	7.34684300
1771.22	3.73793100	7.55266000
1907.46	3.84787600	7.75438600
