;  Optical constants for polcrystaline Cr
; 
;   taken from:
;
;   'Handbook of Optical Constants of Solids II', Ed. by Edward D. Palik,
;   Academic Press, Inc., 1991.
;   
;    Lambda (nm)            n            k
;-----------------------------------------
100.80	1.14000000	0.71000000
103.32	1.13000000	0.70000000
105.97	1.10000000	0.69000000
107.81	1.09000000	0.69000000
109.72	1.07000000	0.69000000
111.69	1.05000000	0.69000000
114.80	1.03000000	0.70000000
118.08	1.01000000	0.72000000
120.37	1.00000000	0.72000000
123.98	0.98000000	0.73000000
127.03	0.95000000	0.73000000
129.96	0.92000000	0.74000000
134.03	0.86000000	0.77000000
136.99	0.83000000	0.81000000
138.99	0.81000000	0.83000000
142.02	0.78000000	0.87000000
144.00	0.76000000	0.89000000
146.03	0.74000000	0.92000000
149.01	0.72000000	0.97000000
151.01	0.71000000	1.00000000
153.06	0.69000000	1.04000000
154.97	0.68000000	1.07000000
156.94	0.68000000	1.11000000
158.95	0.67000000	1.15000000
161.01	0.67000000	1.19000000
162.92	0.66000000	1.23000000
164.87	0.67000000	1.27000000
168.00	0.69000000	1.33000000
170.07	0.70000000	1.36000000
171.96	0.71000000	1.39000000
173.88	0.72000000	1.42000000
176.86	0.74000000	1.45000000
179.94	0.76000000	1.49000000
182.06	0.75000000	1.51000000
185.05	0.78000000	1.57000000
187.85	0.80000000	1.59000000
191.03	0.82000000	1.63000000
194.02	0.85000000	1.66000000
197.11	0.88000000	1.68000000
199.97	0.89000000	1.69000000
202.91	0.92000000	1.72000000
206.98	0.94000000	1.73000000
210.14	0.96000000	1.73000000
214.13	0.97000000	1.74000000
217.13	0.97000000	1.75000000
221.00	0.95000000	1.74000000
225.01	0.94000000	1.76000000
230.02	0.93000000	1.80000000
233.93	0.90000000	1.83000000
237.97	0.87000000	1.87000000
243.10	0.86000000	1.94000000
247.96	0.85000000	2.01000000
253.02	0.86000000	2.07000000
258.29	0.86000000	2.13000000
263.79	0.86000000	2.21000000
269.52	0.88000000	2.28000000
275.51	0.89000000	2.35000000
281.77	0.90000000	2.42000000
286.99	0.91000000	2.49000000
293.79	0.94000000	2.58000000
300.19	0.98000000	2.67000000
307.64	1.02000000	2.76000000
316.28	1.06000000	2.85000000
323.71	1.12000000	2.95000000
333.28	1.18000000	3.04000000
341.54	1.26000000	3.12000000
351.22	1.33000000	3.18000000
362.51	1.39000000	3.24000000
372.31	1.43000000	3.31000000
385.03	1.44000000	3.40000000
396.10	1.48000000	3.54000000
409.18	1.54000000	3.71000000
424.59	1.65000000	3.89000000
438.09	1.80000000	4.06000000
455.81	1.99000000	4.22000000
471.41	2.22000000	4.36000000
490.04	2.49000000	4.44000000
512.31	2.75000000	4.46000000
532.10	2.98000000	4.45000000
558.47	3.18000000	4.41000000
582.07	3.34000000	4.38000000
610.74	3.48000000	4.36000000
700.45	3.84000000	4.37000000
815.66	4.23000000	4.34000000
826.53	4.27000000	4.33000000
849.18	4.31000000	4.32000000
860.97	4.33000000	4.32000000
885.57	4.38000000	4.31000000
911.62	4.42000000	4.30000000
939.24	4.47000000	4.29000000
968.59	4.49000000	4.28000000
999.84	4.50000000	4.28000000
1033.17	4.52000000	4.29000000
1068.79	4.53000000	4.30000000
1106.96	4.53000000	4.31000000
1147.96	4.53000000	4.34000000
1192.12	4.51000000	4.36000000
1239.80	4.47000000	4.43000000
1291.46	4.47000000	4.50000000
1347.61	4.45000000	4.56000000
1377.56	4.43000000	4.60000000
1441.63	4.35000000	4.66000000
1511.95	4.24000000	4.81000000
1589.49	4.13000000	5.03000000
1675.41	4.06000000	5.30000000
1771.14	4.01000000	5.59000000
1878.48	3.96000000	5.95000000
1999.68	4.01000000	6.31000000
2137.59	4.01000000	6.65000000
2295.93	3.92000000	7.06000000
2479.60	3.83000000	7.58000000
