; Refractive index spectrum for Cr by Rakic
;
; A. D. Rakić, A. B. Djurišic, J. M. Elazar, and M. L. Majewski. Optical properties of metallic films for vertical-cavity optoelectronic devices, <a href="http://dx.doi.org/10.1364/AO.37.005271"><i>Appl. Opt.</i> <b>37</b>, 5271-5283 (1998)</a>
;
; Fit of the experimental data from several sources to Brendel-Bormann (BB) model
;
; lambda/nm    n     k
206.60 	0.55495635 	1.89695068 
210.90 	0.57193294 	1.94181807 
215.28 	0.58960834 	1.98721366 
219.75 	0.60800936 	2.03314563 
224.32 	0.62716429 	2.07962118 
228.99 	0.64710299 	2.12664655 
233.75 	0.66785691 	2.17422684 
238.61 	0.68945925 	2.22236592 
243.57 	0.71194495 	2.27106631 
248.63 	0.73535083 	2.32032900 
253.80 	0.75971561 	2.37015326 
259.08 	0.78508004 	2.42053648 
264.46 	0.81148690 	2.47147387 
269.96 	0.83898110 	2.52295823 
275.57 	0.86760969 	2.57497964 
281.30 	0.89742188 	2.62752516 
287.15 	0.92846904 	2.68057840 
293.12 	0.96080465 	2.73411916 
299.21 	0.99448425 	2.78812295 
305.43 	1.02956528 	2.84256053 
311.78 	1.06610690 	2.89739737 
318.27 	1.10416976 	2.95259310 
324.88 	1.14381565 	3.00810088 
331.64 	1.18510706 	3.06386683 
338.53 	1.22810665 	3.11982935 
345.57 	1.27287658 	3.17591852 
352.75 	1.31947773 	3.23205546 
360.09 	1.36796868 	3.28815174 
367.57 	1.41840467 	3.34410887 
375.21 	1.47083625 	3.39981788 
383.01 	1.52530786 	3.45515905 
390.98 	1.58185619 	3.51000176 
399.10 	1.64050843 	3.56420466 
407.40 	1.70128036 	3.61761602 
415.87 	1.76417440 	3.67007447 
424.52 	1.82917762 	3.72140998 
433.34 	1.89625979 	3.77144539 
442.35 	1.96537153 	3.81999817 
451.55 	2.03644271 	3.86688269 
460.93 	2.10938111 	3.91191279 
470.52 	2.18407146 	3.95490476 
480.30 	2.26037499 	3.99568049 
490.28 	2.33812943 	4.03407090 
500.48 	2.41714968 	4.06991931 
510.88 	2.49722905 	4.10308489 
521.50 	2.57814103 	4.13344587 
532.34 	2.65964171 	4.16090243 
543.41 	2.74147269 	4.18537928 
554.71 	2.82336430 	4.20682761 
566.24 	2.90503926 	4.22522660 
578.01 	2.98621643 	4.24058419 
590.03 	3.06661461 	4.25293734 
602.30 	3.14595638 	4.26235155 
614.82 	3.22397164 	4.26891983 
627.60 	3.30040093 	4.27276119 
640.65 	3.37499839 	4.27401864 
653.96 	3.44753423 	4.27285674 
667.56 	3.51779687 	4.26945907 
681.44 	3.58559441 	4.26402530 
695.60 	3.65075576 	4.25676837 
710.07 	3.71313123 	4.24791157 
724.83 	3.77259270 	4.23768567 
739.90 	3.82903338 	4.22632632 
755.28 	3.88236724 	4.21407151 
770.98 	3.93252812 	4.20115938 
787.01 	3.97946868 	4.18782618 
803.37 	4.02315902 	4.17430460 
820.07 	4.06358538 	4.16082233 
837.12 	4.10074857 	4.14760091 
854.52 	4.13466248 	4.13485487 
872.29 	4.16535259 	4.12279110 
890.42 	4.19285447 	4.11160841 
908.93 	4.21721239 	4.10149739 
927.83 	4.23847802 	4.09264038 
947.12 	4.25670924 	4.08521162 
966.81 	4.27196901 	4.07937751 
986.91 	4.28432446 	4.07529702 
1007.43 	4.29384604 	4.07312216 
1028.37 	4.30060687 	4.07299845 
1049.75 	4.30468212 	4.07506557 
1071.57 	4.30614863 	4.07945786 
1093.85 	4.30508459 	4.08630496 
1116.59 	4.30156931 	4.09573235 
1139.80 	4.29568323 	4.10786192 
1163.50 	4.28750784 	4.12281241 
1187.69 	4.27712583 	4.14069991 
1212.38 	4.26462131 	4.16163818 
1237.58 	4.25007997 	4.18573898 
1263.31 	4.23358948 	4.21311227 
1289.57 	4.21523978 	4.24386630 
1316.38 	4.19512341 	4.27810765 
1343.75 	4.17333596 	4.31594114 
1371.69 	4.14997633 	4.35746963 
1400.20 	4.12514710 	4.40279374 
1429.31 	4.09895478 	4.45201145 
1459.03 	4.07150999 	4.50521762 
1489.36 	4.04292756 	4.56250346 
1520.32 	4.01332651 	4.62395589 
1551.93 	3.98282993 	4.68965694 
1584.19 	3.95156470 	4.75968303 
1617.13 	3.91966107 	4.83410437 
1650.75 	3.88725214 	4.91298434 
1685.06 	3.85447315 	4.99637896 
1720.10 	3.82146067 	5.08433647 
1755.85 	3.78835176 	5.17689701 
1792.36 	3.75528291 	5.27409252 
1829.62 	3.72238910 	5.37594668 
1867.66 	3.68980274 	5.48247515 
1906.48 	3.65765267 	5.59368589 
1946.12 	3.62606322 	5.70957972 
1986.58 	3.59515339 	5.83015094 
2027.88 	3.56503608 	5.95538815 
