; From SOPRA S.A. http://www.sopra-sa.com/indices.htm
; Filename    Symbol               Range (nm)     Description
; SICR-T25    Si                  263      826    Crystalline Silicon (Temp: 250 C)
; lambda/nm       n         k
263.80	1.99600000	4.06200000
265.21	2.03300000	4.13200000
266.63	2.06400000	4.19800000
268.08	2.10500000	4.27500000
269.53	2.16100000	4.34900000
271.01	2.22200000	4.41800000
272.49	2.28200000	4.50100000
274.00	2.36600000	4.58400000
275.52	2.44100000	4.67500000
277.06	2.54700000	4.75000000
278.62	2.65900000	4.83500000
280.19	2.77200000	4.89400000
281.78	2.92300000	4.98100000
283.39	3.05700000	5.01800000
285.02	3.19700000	5.07400000
286.67	3.39200000	5.12600000
288.34	3.57500000	5.14600000
290.02	3.77900000	5.15300000
291.73	3.98900000	5.15000000
293.46	4.22300000	5.07900000
295.20	4.44900000	4.97400000
296.97	4.63800000	4.83000000
298.76	4.77900000	4.68700000
300.57	4.88800000	4.51200000
302.40	4.97100000	4.35000000
304.26	5.02700000	4.19500000
306.14	5.05600000	4.04700000
308.04	5.10300000	3.91800000
309.96	5.10400000	3.80100000
311.91	5.12900000	3.70700000
313.89	5.12800000	3.61900000
315.89	5.14000000	3.54000000
317.91	5.14200000	3.45000000
319.96	5.14800000	3.38000000
322.04	5.15500000	3.31400000
324.14	5.19300000	3.26800000
326.28	5.18900000	3.20400000
328.44	5.19000000	3.16700000
330.63	5.20900000	3.11600000
332.85	5.21800000	3.07400000
335.10	5.24100000	3.04500000
337.37	5.25500000	2.99200000
339.69	5.28400000	2.95400000
342.03	5.31300000	2.92300000
344.40	5.35500000	2.90000000
346.81	5.37000000	2.86700000
349.25	5.41000000	2.84300000
351.73	5.45400000	2.82900000
354.24	5.50700000	2.78800000
356.79	5.58200000	2.78000000
359.38	5.65300000	2.77100000
362.00	5.75500000	2.74000000
364.66	5.87300000	2.70300000
367.36	6.03000000	2.63700000
370.11	6.18200000	2.53300000
372.89	6.36200000	2.38800000
375.71	6.50700000	2.17600000
378.58	6.59000000	1.92100000
381.49	6.60000000	1.63600000
384.45	6.55600000	1.36000000
387.45	6.47200000	1.12500000
390.50	6.34700000	0.93600000
393.60	6.20400000	0.79500000
396.75	6.08300000	0.66400000
399.95	5.95700000	0.56800000
403.20	5.83300000	0.48300000
406.51	5.72800000	0.42100000
409.87	5.62200000	0.37600000
413.28	5.52900000	0.32000000
416.76	5.43700000	0.29500000
420.29	5.35500000	0.25100000
423.88	5.27600000	0.23400000
427.54	5.20300000	0.20300000
431.25	5.13200000	0.18400000
435.04	5.06800000	0.16600000
438.89	5.00800000	0.15200000
442.80	4.95000000	0.13200000
446.79	4.89100000	0.13000000
450.86	4.83900000	0.11600000
454.99	4.79300000	0.09800000
459.20	4.74300000	0.09400000
463.50	4.69900000	0.08600000
467.87	4.65500000	0.07800000
472.32	4.61400000	0.07030000
476.87	4.56900000	0.06800000
481.50	4.53500000	0.05600000
486.22	4.49700000	0.05000000
491.03	4.46200000	0.04700000
495.94	4.43000000	0.04000000
500.95	4.39600000	0.04000000
506.06	4.36600000	0.03500000
511.28	4.33500000	0.03200000
516.60	4.30700000	0.02700000
522.04	4.27800000	0.02400000
527.60	4.25300000	0.02100000
533.27	4.22600000	0.01900000
539.07	4.20300000	0.01400000
544.99	4.18000000	0.01300000
551.05	4.15700000	0.01400000
557.24	4.13600000	0.01200000
563.57	4.11500000	0.01000000
570.05	4.09400000	0.01100000
576.68	4.07700000	0.00800000
583.46	4.05700000	0.00800000
590.41	4.03800000	0.00700000
597.52	4.02400000	0.00700000
604.81	4.00860000	0.00600000
612.27	3.98870000	0.00600000
619.93	3.97100000	0.00500000
627.77	3.95500000	0.00500000
635.82	3.93800000	0.00400000
644.08	3.92400000	0.00400000
652.55	3.91200000	0.00400000
661.25	3.89300000	0.00500000
670.19	3.88000000	0.00500000
679.37	3.86700000	0.00300000
688.81	3.85900000	0.00400000
698.51	3.84600000	0.00200000
708.49	3.83400000	0.00200000
718.75	3.82000000	0.00100000
729.32	3.81200000	0.00100000
740.21	3.79900000	0.00100000
751.43	3.79100000	0.00100000
762.99	3.77950000	0.00100000
774.91	3.77200000	0.00100000
787.21	3.76100000	0.00100000
799.90	3.75100000	0.00010000
813.02	3.74100000	0.00000000
826.57	3.73100000	0.00000000
