; From SOPRA S.A. http://www.sopra-sa.com/indices.htm
; Filename    Symbol               Range (nm)     Description
; SICR-T35    Si                  263      826    Crystalline Silicon (Temp: 350 C)
; lambda/nm       n         k
263.80	2.03400000	4.01600000
265.21	2.07700000	4.07500000
266.63	2.11100000	4.14300000
268.08	2.16100000	4.20000000
269.53	2.19000000	4.27900000
271.01	2.25000000	4.35700000
272.49	2.31000000	4.43000000
274.00	2.38100000	4.49500000
275.52	2.45800000	4.57100000
277.06	2.55000000	4.65700000
278.62	2.64900000	4.70200000
280.19	2.75500000	4.79800000
281.78	2.88300000	4.85900000
283.39	3.02600000	4.91600000
285.02	3.16300000	4.97200000
286.67	3.30400000	5.00100000
288.34	3.49000000	5.05600000
290.02	3.68200000	5.07800000
291.73	3.87600000	5.06400000
293.46	4.09800000	5.03200000
295.20	4.31900000	4.95200000
296.97	4.48100000	4.86300000
298.76	4.65600000	4.70500000
300.57	4.78500000	4.57200000
302.40	4.88200000	4.42000000
304.26	4.96900000	4.26800000
306.14	5.03500000	4.12000000
308.04	5.07100000	3.98800000
309.96	5.08800000	3.87900000
311.91	5.10500000	3.76500000
313.89	5.13800000	3.65200000
315.89	5.13800000	3.57000000
317.91	5.14600000	3.47800000
319.96	5.14600000	3.41400000
322.04	5.14800000	3.34600000
324.14	5.17500000	3.27900000
326.28	5.17700000	3.22200000
328.44	5.18600000	3.16300000
330.63	5.20700000	3.12400000
332.85	5.21300000	3.07400000
335.10	5.23500000	3.03500000
337.37	5.24800000	2.99100000
339.69	5.27200000	2.95200000
342.03	5.30100000	2.91300000
344.40	5.32100000	2.87800000
346.81	5.35800000	2.85000000
349.25	5.38400000	2.80800000
351.73	5.41800000	2.80600000
354.24	5.46500000	2.75900000
356.79	5.51800000	2.74700000
359.38	5.59800000	2.71600000
362.00	5.66500000	2.68300000
364.66	5.76100000	2.65500000
367.36	5.88000000	2.60300000
370.11	6.00800000	2.53000000
372.89	6.13800000	2.41700000
375.71	6.26400000	2.29100000
378.58	6.39300000	2.07100000
381.49	6.46800000	1.85500000
384.45	6.47400000	1.60600000
387.45	6.43300000	1.36700000
390.50	6.35700000	1.15700000
393.60	6.26200000	0.96600000
396.75	6.15300000	0.82600000
399.95	6.02800000	0.70300000
403.20	5.91600000	0.60000000
406.51	5.80100000	0.51600000
409.87	5.70000000	0.44700000
413.28	5.60100000	0.39900000
416.76	5.51300000	0.35400000
420.29	5.43000000	0.31500000
423.88	5.34200000	0.28500000
427.54	5.26700000	0.25600000
431.25	5.19600000	0.23800000
435.04	5.13000000	0.20700000
438.89	5.06000000	0.19300000
442.80	5.00200000	0.17700000
446.79	4.95000000	0.14600000
450.86	4.89400000	0.13900000
454.99	4.84300000	0.12900000
459.20	4.79200000	0.11700000
463.50	4.74500000	0.10800000
467.87	4.69900000	0.10400000
472.32	4.65600000	0.09000000
476.87	4.61500000	0.08600000
481.50	4.57700000	0.07400000
486.22	4.53300000	0.07100000
491.03	4.50100000	0.06300000
495.94	4.46800000	0.05600000
500.95	4.43400000	0.05100000
506.06	4.40000000	0.05000000
511.28	4.37000000	0.04300000
516.60	4.34200000	0.03600000
522.04	4.31200000	0.03500000
527.60	4.28400000	0.03100000
533.27	4.25800000	0.03000000
539.07	4.23300000	0.02600000
544.99	4.20800000	0.02500000
551.05	4.18600000	0.02100000
557.24	4.16400000	0.02000000
563.57	4.14200000	0.01800000
570.05	4.12100000	0.01800000
576.68	4.10300000	0.01300000
583.46	4.08200000	0.01400000
590.41	4.06400000	0.01200000
597.52	4.04800000	0.01300000
604.81	4.02970000	0.01100000
612.27	4.01300000	0.01000000
619.93	3.99400000	0.00800000
627.77	3.97900000	0.00700000
635.82	3.96200000	0.00700000
644.08	3.94700000	0.00700000
652.55	3.93500000	0.00800000
661.25	3.91700000	0.00700000
670.19	3.90270000	0.00600000
679.37	3.89180000	0.00600000
688.81	3.87900000	0.00600000
698.51	3.86700000	0.00600000
708.49	3.85700000	0.00500000
718.75	3.84800000	0.00400000
729.32	3.83600000	0.00200000
740.21	3.82400000	0.00130000
751.43	3.81600000	0.00100000
762.99	3.80500000	0.00150000
774.91	3.79600000	0.00200000
787.21	3.78800000	0.00150000
799.90	3.77800000	0.00150000
813.02	3.77000000	0.00210000
826.57	3.75700000	0.00200000
