; From SOPRA S.A. http://www.sopra-sa.com/indices.htm
; Filename    Symbol               Range (nm)     Description
; SICR-T45    Si                  263      826    Crystalline Silicon (Temp: 450 C)
; lambda/nm       n         k
263.80	2.05700000	3.95600000
265.21	2.08200000	4.00800000
266.63	2.11800000	4.06100000
268.08	2.14700000	4.12000000
269.53	2.18600000	4.18300000
271.01	2.24800000	4.24300000
272.49	2.29800000	4.30000000
274.00	2.35900000	4.38900000
275.52	2.42500000	4.45900000
277.06	2.49000000	4.51600000
278.62	2.60300000	4.58100000
280.19	2.68100000	4.64400000
281.78	2.80000000	4.71400000
283.39	2.90400000	4.77200000
285.02	3.01000000	4.84000000
286.67	3.14900000	4.87200000
288.34	3.30100000	4.91300000
290.02	3.45900000	4.94900000
291.73	3.63700000	4.98600000
293.46	3.81500000	4.97400000
295.20	4.01600000	4.94600000
296.97	4.20100000	4.87900000
298.76	4.37800000	4.79400000
300.57	4.53900000	4.67400000
302.40	4.69200000	4.56500000
304.26	4.79600000	4.40700000
306.14	4.88800000	4.27300000
308.04	4.94700000	4.13700000
309.96	5.00600000	4.00600000
311.91	5.03200000	3.89300000
313.89	5.05800000	3.78600000
315.89	5.09300000	3.68300000
317.91	5.09700000	3.58900000
319.96	5.11100000	3.50700000
322.04	5.13100000	3.42300000
324.14	5.13800000	3.35500000
326.28	5.14400000	3.30300000
328.44	5.15900000	3.23400000
330.63	5.18800000	3.17800000
332.85	5.17800000	3.13200000
335.10	5.19600000	3.07900000
337.37	5.21800000	3.02500000
339.69	5.23300000	2.98400000
342.03	5.25400000	2.94000000
344.40	5.27800000	2.90500000
346.81	5.30300000	2.86700000
349.25	5.32900000	2.82700000
351.73	5.35400000	2.79300000
354.24	5.40300000	2.77100000
356.79	5.44300000	2.73600000
359.38	5.49900000	2.70500000
362.00	5.54300000	2.68000000
364.66	5.60900000	2.63700000
367.36	5.68400000	2.59400000
370.11	5.77600000	2.54600000
372.89	5.87200000	2.47500000
375.71	5.99300000	2.38300000
378.58	6.07500000	2.27000000
381.49	6.18100000	2.11000000
384.45	6.25900000	1.92700000
387.45	6.29800000	1.73100000
390.50	6.30400000	1.52400000
393.60	6.26600000	1.32200000
396.75	6.19900000	1.16000000
399.95	6.11200000	0.99200000
403.20	6.02200000	0.85700000
406.51	5.91700000	0.75500000
409.87	5.82800000	0.65400000
413.28	5.73200000	0.56900000
416.76	5.63500000	0.51200000
420.29	5.55300000	0.45100000
423.88	5.46900000	0.40500000
427.54	5.38600000	0.36600000
431.25	5.30700000	0.32500000
435.04	5.24000000	0.29800000
438.89	5.17900000	0.26500000
442.80	5.11000000	0.25300000
446.79	5.05100000	0.22200000
450.86	4.98800000	0.21200000
454.99	4.93700000	0.18800000
459.20	4.88400000	0.17500000
463.50	4.83600000	0.15600000
467.87	4.78900000	0.14600000
472.32	4.74000000	0.13700000
476.87	4.69900000	0.12200000
481.50	4.65500000	0.11300000
486.22	4.61500000	0.10600000
491.03	4.57800000	0.09400000
495.94	4.54300000	0.08700000
500.95	4.50900000	0.08100000
506.06	4.47300000	0.07800000
511.28	4.44000000	0.06900000
516.60	4.41000000	0.06300000
522.04	4.38000000	0.05700000
527.60	4.34900000	0.05400000
533.27	4.32100000	0.04900000
539.07	4.29600000	0.04100000
544.99	4.26800000	0.03900000
551.05	4.24300000	0.03600000
557.24	4.21800000	0.03300000
563.57	4.19700000	0.03200000
570.05	4.17400000	0.02900000
576.68	4.15300000	0.02300000
583.46	4.13200000	0.02400000
590.41	4.11300000	0.02200000
597.52	4.09330000	0.02100000
604.81	4.07560000	0.02000000
612.27	4.05830000	0.01700000
619.93	4.04100000	0.01600000
627.77	4.02200000	0.01500000
635.82	4.00860000	0.01400000
644.08	3.99280000	0.01300000
652.55	3.97700000	0.01400000
661.25	3.96000000	0.01400000
670.19	3.94790000	0.01300000
679.37	3.93370000	0.01200000
688.81	3.92000000	0.01200000
698.51	3.90640000	0.01120000
708.49	3.89340000	0.01000000
718.75	3.88080000	0.01000000
729.32	3.87000000	0.01000000
740.21	3.85670000	0.00590000
751.43	3.84520000	0.00600000
762.99	3.83410000	0.00400000
774.91	3.82300000	0.00800000
787.21	3.81320000	0.00430000
799.90	3.80330000	0.00640000
813.02	3.79380000	0.00450000
826.57	3.78400000	0.00300000
