; From SOPRA S.A. http://www.sopra-sa.com/indices.htm
; Filename    Symbol               Range (nm)     Description
; SICR-T40    Si                  263      826    Crystalline Silicon (Temp: 400 C)
; lambda/nm       n         k
263.80	2.04900000	3.99700000
265.21	2.06800000	4.05200000
266.63	2.11300000	4.08900000
268.08	2.14700000	4.17300000
269.53	2.18600000	4.25100000
271.01	2.25100000	4.30700000
272.49	2.30600000	4.36700000
274.00	2.37100000	4.44400000
275.52	2.45000000	4.51500000
277.06	2.53000000	4.57600000
278.62	2.64700000	4.66300000
280.19	2.75600000	4.73700000
281.78	2.85200000	4.79300000
283.39	2.96300000	4.85800000
285.02	3.09900000	4.89600000
286.67	3.24100000	4.95400000
288.34	3.40800000	4.98700000
290.02	3.57000000	5.02400000
291.73	3.77400000	5.02600000
293.46	3.96000000	5.00000000
295.20	4.18700000	4.96800000
296.97	4.36200000	4.87000000
298.76	4.53500000	4.75400000
300.57	4.70000000	4.63000000
302.40	4.82600000	4.47600000
304.26	4.91300000	4.32400000
306.14	4.98000000	4.17500000
308.04	5.02500000	4.04300000
309.96	5.06000000	3.91200000
311.91	5.08500000	3.79100000
313.89	5.10900000	3.70900000
315.89	5.11800000	3.61600000
317.91	5.13300000	3.52700000
319.96	5.13500000	3.44900000
322.04	5.14800000	3.36800000
324.14	5.16200000	3.31900000
326.28	5.16800000	3.25300000
328.44	5.18900000	3.18900000
330.63	5.19100000	3.14600000
332.85	5.21100000	3.09200000
335.10	5.22600000	3.05200000
337.37	5.23900000	2.99800000
339.69	5.27200000	2.96200000
342.03	5.27700000	2.92000000
344.40	5.31000000	2.87900000
346.81	5.33000000	2.85700000
349.25	5.36400000	2.81700000
351.73	5.40900000	2.78700000
354.24	5.44500000	2.75900000
356.79	5.49900000	2.72300000
359.38	5.54300000	2.70400000
362.00	5.60600000	2.67900000
364.66	5.70500000	2.64400000
367.36	5.78200000	2.60200000
370.11	5.90000000	2.52600000
372.89	6.01900000	2.44400000
375.71	6.13500000	2.31800000
378.58	6.25700000	2.15700000
381.49	6.34500000	1.96900000
384.45	6.39800000	1.75900000
387.45	6.39900000	1.53500000
390.50	6.34500000	1.31800000
393.60	6.29200000	1.11200000
396.75	6.18300000	0.96500000
399.95	6.06700000	0.81500000
403.20	5.97000000	0.69700000
406.51	5.85500000	0.62600000
409.87	5.76100000	0.53500000
413.28	5.66000000	0.46800000
416.76	5.56400000	0.41700000
420.29	5.47700000	0.36500000
423.88	5.39500000	0.33600000
427.54	5.31700000	0.30100000
431.25	5.24500000	0.26900000
435.04	5.17700000	0.23900000
438.89	5.10600000	0.22400000
442.80	5.04700000	0.20800000
446.79	4.98700000	0.19200000
450.86	4.93500000	0.16700000
454.99	4.88200000	0.14800000
459.20	4.82900000	0.13900000
463.50	4.78200000	0.13200000
467.87	4.73600000	0.11300000
472.32	4.69200000	0.10400000
476.87	4.64800000	0.10300000
481.50	4.60800000	0.09300000
486.22	4.56900000	0.08600000
491.03	4.53500000	0.07200000
495.94	4.49800000	0.07200000
500.95	4.46600000	0.06700000
506.06	4.43000000	0.06100000
511.28	4.39900000	0.05500000
516.60	4.37000000	0.04700000
522.04	4.34200000	0.04200000
527.60	4.31300000	0.04200000
533.27	4.28500000	0.03600000
539.07	4.26000000	0.03200000
544.99	4.23300000	0.03000000
551.05	4.20700000	0.02900000
557.24	4.18900000	0.02100000
563.57	4.16500000	0.02100000
570.05	4.14300000	0.02000000
576.68	4.12200000	0.02000000
583.46	4.10300000	0.01700000
590.41	4.08400000	0.01600000
597.52	4.06800000	0.01600000
604.81	4.05060000	0.01300000
612.27	4.03200000	0.01200000
619.93	4.01400000	0.01200000
627.77	3.99500000	0.01200000
635.82	3.97700000	0.01000000
644.08	3.96300000	0.01200000
652.55	3.95200000	0.01100000
661.25	3.93400000	0.00900000
670.19	3.92300000	0.00900000
679.37	3.90900000	0.00700000
688.81	3.89700000	0.00700000
698.51	3.88280000	0.00700000
708.49	3.87410000	0.00620000
718.75	3.86200000	0.00420000
729.32	3.84800000	0.00200000
740.21	3.83700000	0.00060000
751.43	3.82900000	0.00130000
762.99	3.81900000	0.00130000
774.91	3.80800000	0.00200000
787.21	3.79800000	0.00100000
799.90	3.78900000	0.00060000
813.02	3.78000000	0.00080000
826.57	3.76900000	0.00200000
