; From SOPRA S.A. http://www.sopra-sa.com/indices.htm
; Filename    Symbol               Range (nm)     Description
; SICR-T20    Si                  263      826    Crystalline Silicon (Temp: 200 C)
; lambda/nm       n         k
263.80	1.96500000	4.08900000
265.21	2.00100000	4.14900000
266.63	2.03600000	4.22000000
268.08	2.08600000	4.30200000
269.53	2.13300000	4.38000000
271.01	2.20200000	4.46300000
272.49	2.25700000	4.54200000
274.00	2.36000000	4.63300000
275.52	2.44200000	4.70900000
277.06	2.55300000	4.81400000
278.62	2.66400000	4.86400000
280.19	2.78400000	4.93900000
281.78	2.92600000	5.03100000
283.39	3.09200000	5.07900000
285.02	3.25100000	5.12600000
286.67	3.42700000	5.16200000
288.34	3.64000000	5.19100000
290.02	3.85600000	5.19800000
291.73	4.09000000	5.18100000
293.46	4.32000000	5.08600000
295.20	4.53800000	4.95200000
296.97	4.69200000	4.80500000
298.76	4.83400000	4.62300000
300.57	4.92600000	4.45700000
302.40	5.00800000	4.29000000
304.26	5.05800000	4.14800000
306.14	5.09500000	4.01300000
308.04	5.09700000	3.87600000
309.96	5.11600000	3.77300000
311.91	5.13000000	3.67500000
313.89	5.13700000	3.59000000
315.89	5.15000000	3.49800000
317.91	5.13300000	3.44400000
319.96	5.14200000	3.36900000
322.04	5.16600000	3.30700000
324.14	5.16300000	3.26100000
326.28	5.19000000	3.20200000
328.44	5.19100000	3.14500000
330.63	5.20000000	3.10600000
332.85	5.22800000	3.07200000
335.10	5.23700000	3.02400000
337.37	5.26100000	2.99600000
339.69	5.28700000	2.96100000
342.03	5.31300000	2.92700000
344.40	5.35700000	2.89200000
346.81	5.37300000	2.87400000
349.25	5.42800000	2.85200000
351.73	5.47100000	2.83200000
354.24	5.52600000	2.82100000
356.79	5.60700000	2.79900000
359.38	5.69800000	2.78400000
362.00	5.81100000	2.75900000
364.66	5.95700000	2.71500000
367.36	6.12800000	2.64400000
370.11	6.28800000	2.52300000
372.89	6.46400000	2.33900000
375.71	6.59300000	2.08500000
378.58	6.66800000	1.79200000
381.49	6.64900000	1.47600000
384.45	6.55300000	1.23800000
387.45	6.43200000	1.01700000
390.50	6.31400000	0.82700000
393.60	6.16300000	0.69400000
396.75	6.02900000	0.60600000
399.95	5.90100000	0.50200000
403.20	5.78300000	0.43300000
406.51	5.67700000	0.38400000
409.87	5.57900000	0.32800000
413.28	5.47900000	0.29200000
416.76	5.39600000	0.25600000
420.29	5.31400000	0.22600000
423.88	5.23800000	0.20900000
427.54	5.16200000	0.18700000
431.25	5.09600000	0.16600000
435.04	5.03600000	0.14100000
438.89	4.97000000	0.13700000
442.80	4.91600000	0.12300000
446.79	4.86100000	0.11000000
450.86	4.81000000	0.10000000
454.99	4.76200000	0.08900000
459.20	4.71300000	0.08200000
463.50	4.66900000	0.07300000
467.87	4.62600000	0.06800000
472.32	4.58400000	0.06100000
476.87	4.54700000	0.05200000
481.50	4.51000000	0.04300000
486.22	4.47300000	0.04000000
491.03	4.43700000	0.04000000
495.94	4.40500000	0.03600000
500.95	4.37400000	0.03100000
506.06	4.34300000	0.02800000
511.28	4.31200000	0.02500000
516.60	4.28500000	0.02200000
522.04	4.25700000	0.01800000
527.60	4.23200000	0.01500000
533.27	4.20900000	0.01300000
539.07	4.18500000	0.01200000
544.99	4.16100000	0.01300000
551.05	4.13900000	0.01000000
557.24	4.11800000	0.01000000
563.57	4.09800000	0.00880000
570.05	4.07900000	0.00800000
576.68	4.06000000	0.00700000
583.46	4.04100000	0.00400000
590.41	4.02300000	0.00600000
597.52	4.00980000	0.00400000
604.81	3.99160000	0.00500000
612.27	3.97400000	0.00300000
619.93	3.95700000	0.00400000
627.77	3.94080000	0.00300000
635.82	3.92510000	0.00300000
644.08	3.91010000	0.00400000
652.55	3.89900000	0.00400000
661.25	3.88190000	0.00300000
670.19	3.86880000	0.00400000
679.37	3.85620000	0.00200000
688.81	3.84900000	0.00300000
698.51	3.83310000	0.00300000
708.49	3.82250000	0.00300000
718.75	3.81200000	0.00300000
729.32	3.80300000	0.00800000
740.21	3.78900000	0.00300000
751.43	3.78300000	0.00210000
762.99	3.77200000	0.00200000
774.91	3.76250000	0.00690000
787.21	3.75100000	0.00400000
799.90	3.74100000	0.00200000
813.02	3.73000000	0.00170000
826.57	3.72100000	0.00750000
