; From SOPRA S.A. http://www.sopra-sa.com/indices.htm
; Filename    Symbol               Range (nm)     Description
; SICR-T02    Si                  263      826    Crystalline Silicon (Temp: 20 C)
; lambda/nm       n         k
263.80	1.82500000	4.17500000
265.21	1.85400000	4.26200000
266.63	1.89900000	4.34100000
268.08	1.95400000	4.43900000
269.53	2.01400000	4.54300000
271.01	2.09900000	4.65900000
272.49	2.18800000	4.73500000
274.00	2.29300000	4.85500000
275.52	2.42600000	4.94100000
277.06	2.57400000	5.03100000
278.62	2.72300000	5.11100000
280.19	2.87700000	5.15800000
281.78	3.03700000	5.23300000
283.39	3.23200000	5.28000000
285.02	3.40600000	5.33200000
286.67	3.66800000	5.34700000
288.34	3.92600000	5.35300000
290.02	4.20500000	5.27200000
291.73	4.45400000	5.14200000
293.46	4.65900000	4.94900000
295.20	4.79100000	4.74000000
296.97	4.88500000	4.54800000
298.76	4.92800000	4.36400000
300.57	4.98500000	4.20600000
302.40	4.98600000	4.06700000
304.26	5.00900000	3.94100000
306.14	5.02500000	3.82700000
308.04	5.02400000	3.74400000
309.96	5.02900000	3.64500000
311.91	5.03400000	3.57500000
313.89	5.03900000	3.49200000
315.89	5.03500000	3.44400000
317.91	5.03200000	3.39200000
319.96	5.05100000	3.34700000
322.04	5.06800000	3.28600000
324.14	5.06600000	3.25800000
326.28	5.09100000	3.21300000
328.44	5.12000000	3.17400000
330.63	5.13500000	3.14600000
332.85	5.15900000	3.11200000
335.10	5.17700000	3.08300000
337.37	5.21800000	3.05000000
339.69	5.24700000	3.03200000
342.03	5.27700000	3.00900000
344.40	5.31000000	3.00500000
346.81	5.36300000	3.00800000
349.25	5.42900000	3.01800000
351.73	5.48700000	3.02800000
354.24	5.60100000	3.05600000
356.79	5.75200000	3.09200000
359.38	5.96700000	3.10500000
362.00	6.25100000	3.03700000
364.66	6.56300000	2.86900000
367.36	6.82100000	2.56200000
370.11	6.98900000	2.16300000
372.89	7.00400000	1.75000000
375.71	6.89900000	1.40400000
378.58	6.73500000	1.06800000
381.49	6.54800000	0.87100000
384.45	6.36900000	0.69500000
387.45	6.19100000	0.58700000
390.50	6.04100000	0.48600000
393.60	5.89700000	0.44000000
396.75	5.76400000	0.38500000
399.95	5.64900000	0.32600000
403.20	5.54300000	0.29700000
406.51	5.45000000	0.25900000
409.87	5.35600000	0.23200000
413.28	5.27900000	0.20300000
416.76	5.19700000	0.18700000
420.29	5.12600000	0.17100000
423.88	5.05600000	0.15400000
427.54	4.99400000	0.14200000
431.25	4.93300000	0.13000000
435.04	4.87200000	0.12100000
438.89	4.82500000	0.10800000
442.80	4.77000000	0.10100000
446.79	4.72200000	0.09500000
450.86	4.67700000	0.08600000
454.99	4.63100000	0.08000000
459.20	4.59100000	0.06900000
463.50	4.54900000	0.06260000
467.87	4.51000000	0.05680000
472.32	4.47100000	0.04820000
476.87	4.43500000	0.04270000
481.50	4.40200000	0.03930000
486.22	4.36800000	0.03620000
491.03	4.33700000	0.03290000
495.94	4.30900000	0.02800000
500.95	4.28100000	0.02400000
506.06	4.25200000	0.02280000
511.28	4.22400000	0.01890000
516.60	4.20000000	0.01440000
522.04	4.17700000	0.01220000
527.60	4.15300000	0.01090000
533.27	4.13100000	0.01000000
539.07	4.10900000	0.00800000
544.99	4.08900000	0.00750000
551.05	4.06800000	0.00600000
557.24	4.04900000	0.00640000
563.57	4.02900000	0.00520000
570.05	4.01200000	0.00470000
576.68	3.99500000	0.00450000
583.46	3.97700000	0.00380000
590.41	3.96000000	0.00350000
597.52	3.94410000	0.00260000
604.81	3.92910000	0.00200000
612.27	3.91440000	0.00240000
619.93	3.90000000	0.00170000
627.77	3.88600000	0.00130000
635.82	3.87230000	0.00080000
644.08	3.85890000	0.00130000
652.55	3.84500000	0.00170000
661.25	3.83300000	0.00210000
670.19	3.82050000	0.00170000
679.37	3.80840000	0.00240000
688.81	3.79600000	0.00290000
698.51	3.78510000	0.00260000
708.49	3.77390000	0.00240000
718.75	3.76310000	0.00240000
729.32	3.75300000	0.00290000
740.21	3.74230000	0.00260000
751.43	3.73240000	0.00400000
762.99	3.72280000	0.00440000
774.91	3.71600000	0.00120000
787.21	3.70460000	0.00290000
799.90	3.69600000	0.00470000
813.02	3.68770000	0.00500000
826.57	3.67800000	0.00460000
