; From SOPRA S.A. http://www.sopra-sa.com/indices.htm
; Filename    Symbol               Range (nm)     Description
; SICR-T30    Si                  263      826    Crystalline Silicon (Temp: 300 C)
; lambda/nm       n         k
263.80	1.99800000	4.04400000
265.21	2.02300000	4.11300000
266.63	2.06500000	4.16200000
268.08	2.09100000	4.23600000
269.53	2.16400000	4.30900000
271.01	2.20200000	4.39600000
272.49	2.27600000	4.45200000
274.00	2.35400000	4.54300000
275.52	2.44100000	4.63200000
277.06	2.52600000	4.69200000
278.62	2.65000000	4.78400000
280.19	2.76400000	4.84900000
281.78	2.87200000	4.90800000
283.39	3.01100000	4.98500000
285.02	3.16300000	5.03100000
286.67	3.33900000	5.06500000
288.34	3.51700000	5.11300000
290.02	3.71200000	5.12300000
291.73	3.92500000	5.11300000
293.46	4.15300000	5.07400000
295.20	4.34400000	4.97300000
296.97	4.54000000	4.85100000
298.76	4.70400000	4.72300000
300.57	4.83000000	4.55500000
302.40	4.93700000	4.39300000
304.26	4.99900000	4.23400000
306.14	5.03300000	4.08900000
308.04	5.06100000	3.97500000
309.96	5.09700000	3.83700000
311.91	5.10700000	3.74500000
313.89	5.12600000	3.63400000
315.89	5.13700000	3.55400000
317.91	5.13500000	3.47100000
319.96	5.15600000	3.41300000
322.04	5.15600000	3.34300000
324.14	5.15900000	3.27700000
326.28	5.17200000	3.22100000
328.44	5.19700000	3.17400000
330.63	5.20200000	3.11600000
332.85	5.21100000	3.07400000
335.10	5.24100000	3.03700000
337.37	5.25600000	3.00400000
339.69	5.27900000	2.96800000
342.03	5.30100000	2.92400000
344.40	5.33000000	2.89400000
346.81	5.36400000	2.86500000
349.25	5.39600000	2.83800000
351.73	5.44000000	2.80600000
354.24	5.49300000	2.78000000
356.79	5.55000000	2.75600000
359.38	5.61400000	2.75000000
362.00	5.69600000	2.71900000
364.66	5.80800000	2.68300000
367.36	5.93900000	2.62600000
370.11	6.08600000	2.54400000
372.89	6.24000000	2.41400000
375.71	6.38300000	2.23900000
378.58	6.49400000	2.00200000
381.49	6.53800000	1.73900000
384.45	6.51600000	1.48500000
387.45	6.46100000	1.25600000
390.50	6.36300000	1.04300000
393.60	6.23900000	0.88200000
396.75	6.11400000	0.75500000
399.95	5.99000000	0.64100000
403.20	5.87000000	0.54000000
406.51	5.76600000	0.47700000
409.87	5.66100000	0.41300000
413.28	5.55900000	0.36600000
416.76	5.47000000	0.31900000
420.29	5.38500000	0.29100000
423.88	5.30900000	0.25700000
427.54	5.23300000	0.23600000
431.25	5.16200000	0.21200000
435.04	5.09700000	0.18700000
438.89	5.03400000	0.17100000
442.80	4.97500000	0.15100000
446.79	4.91800000	0.14000000
450.86	4.86600000	0.13500000
454.99	4.81400000	0.11800000
459.20	4.76600000	0.10600000
463.50	4.72100000	0.09400000
467.87	4.67700000	0.08900000
472.32	4.63400000	0.08300000
476.87	4.59000000	0.07400000
481.50	4.55500000	0.06700000
486.22	4.51600000	0.06200000
491.03	4.48000000	0.05600000
495.94	4.44700000	0.04900000
500.95	4.41500000	0.04400000
506.06	4.38300000	0.04200000
511.28	4.35200000	0.03500000
516.60	4.32500000	0.03200000
522.04	4.29400000	0.03000000
527.60	4.26600000	0.02600000
533.27	4.24000000	0.02400000
539.07	4.21600000	0.01800000
544.99	4.19400000	0.01900000
551.05	4.17000000	0.01600000
557.24	4.14900000	0.01600000
563.57	4.12900000	0.01400000
570.05	4.10800000	0.01500000
576.68	4.08900000	0.01000000
583.46	4.07000000	0.01000000
590.41	4.05000000	0.01000000
597.52	4.03430000	0.01100000
604.81	4.01650000	0.00800000
612.27	3.99930000	0.00600000
619.93	3.98200000	0.00600000
627.77	3.96640000	0.00500000
635.82	3.95070000	0.00600000
644.08	3.93560000	0.00500000
652.55	3.92300000	0.00600000
661.25	3.90700000	0.00500000
670.19	3.89350000	0.00300000
679.37	3.88060000	0.00400000
688.81	3.87000000	0.00300000
698.51	3.85630000	0.00100000
708.49	3.84490000	0.00200000
718.75	3.83410000	0.00500000
729.32	3.82560000	0.00500000
740.21	3.81410000	0.00200000
751.43	3.80480000	0.00100000
762.99	3.79300000	0.00000000
774.91	3.78400000	0.00700000
787.21	3.77300000	0.00300000
799.90	3.76400000	0.00100000
813.02	3.75300000	0.00100000
826.57	3.74300000	0.00000000
