; From SOPRA S.A. http://www.sopra-sa.com/indices.htm
; Filename    Symbol               Range (nm)     Description
; SICR-T15    Si                  263      826    Crystalline Silicon (Temp: 150 C)
; lambda/nm       n         k
263.80	1.94800000	4.12900000
265.21	1.98700000	4.19500000
266.63	2.02400000	4.27300000
268.08	2.07600000	4.35900000
269.53	2.13000000	4.44300000
271.01	2.18600000	4.52400000
272.49	2.26200000	4.61500000
274.00	2.35500000	4.69400000
275.52	2.46300000	4.78600000
277.06	2.54600000	4.87200000
278.62	2.67200000	4.96700000
280.19	2.82200000	5.00900000
281.78	2.97700000	5.10300000
283.39	3.15200000	5.15100000
285.02	3.31600000	5.19300000
286.67	3.49900000	5.23900000
288.34	3.71200000	5.28200000
290.02	3.93900000	5.25600000
291.73	4.18900000	5.20500000
293.46	4.41900000	5.09200000
295.20	4.62500000	4.93700000
296.97	4.79000000	4.77800000
298.76	4.91900000	4.59400000
300.57	4.98200000	4.40700000
302.40	5.04200000	4.26100000
304.26	5.08200000	4.10800000
306.14	5.10600000	3.97900000
308.04	5.13300000	3.85200000
309.96	5.12700000	3.75200000
311.91	5.14100000	3.66200000
313.89	5.13900000	3.57200000
315.89	5.14600000	3.48900000
317.91	5.13800000	3.42900000
319.96	5.15300000	3.35400000
322.04	5.17000000	3.30200000
324.14	5.17400000	3.25700000
326.28	5.18400000	3.20400000
328.44	5.19800000	3.15600000
330.63	5.21800000	3.12400000
332.85	5.24600000	3.08100000
335.10	5.25500000	3.03500000
337.37	5.27000000	3.00500000
339.69	5.29800000	2.96900000
342.03	5.32500000	2.95000000
344.40	5.36100000	2.90400000
346.81	5.38900000	2.89300000
349.25	5.43700000	2.86800000
351.73	5.48800000	2.85400000
354.24	5.56300000	2.84700000
356.79	5.64800000	2.83300000
359.38	5.75100000	2.84000000
362.00	5.88600000	2.80600000
364.66	6.05500000	2.77000000
367.36	6.25200000	2.66400000
370.11	6.45100000	2.49300000
372.89	6.64100000	2.25900000
375.71	6.74100000	1.95200000
378.58	6.75100000	1.63900000
381.49	6.67100000	1.32900000
384.45	6.56100000	1.07800000
387.45	6.41500000	0.88600000
390.50	6.26500000	0.74300000
393.60	6.13200000	0.60300000
396.75	5.99700000	0.50800000
399.95	5.85900000	0.44500000
403.20	5.74300000	0.37600000
406.51	5.63100000	0.32900000
409.87	5.53600000	0.29300000
413.28	5.43900000	0.26000000
416.76	5.35600000	0.23000000
420.29	5.27500000	0.20500000
423.88	5.20200000	0.17800000
427.54	5.13400000	0.15500000
431.25	5.06300000	0.14700000
435.04	5.00300000	0.13200000
438.89	4.94000000	0.12300000
442.80	4.88400000	0.11200000
446.79	4.83400000	0.09800000
450.86	4.78400000	0.08600000
454.99	4.73400000	0.08100000
459.20	4.68800000	0.07100000
463.50	4.64700000	0.06500000
467.87	4.60300000	0.05900000
472.32	4.56300000	0.05200000
476.87	4.52400000	0.04500000
481.50	4.48700000	0.04100000
486.22	4.45200000	0.03800000
491.03	4.41900000	0.03500000
495.94	4.38500000	0.03200000
500.95	4.35600000	0.02500000
506.06	4.32300000	0.02300000
511.28	4.29500000	0.01800000
516.60	4.26800000	0.01700000
522.04	4.24000000	0.01500000
527.60	4.21600000	0.01100000
533.27	4.19300000	0.01180000
539.07	4.17000000	0.01100000
544.99	4.14700000	0.00800000
551.05	4.12600000	0.00700000
557.24	4.10600000	0.00700000
563.57	4.08600000	0.00500000
570.05	4.06700000	0.00400000
576.68	4.04600000	0.00500000
583.46	4.02800000	0.00500000
590.41	4.01000000	0.00400000
597.52	3.99670000	0.00300000
604.81	3.97610000	0.00400000
612.27	3.96100000	0.00300000
619.93	3.94600000	0.00300000
627.77	3.92600000	0.00300000
635.82	3.91000000	0.00100000
644.08	3.89600000	0.00100000
652.55	3.88400000	0.00100000
661.25	3.87000000	0.00100000
670.19	3.85500000	0.00100000
679.37	3.84600000	0.00100000
688.81	3.83600000	0.00100000
698.51	3.82100000	0.00100000
708.49	3.81200000	0.00400000
718.75	3.79830000	0.00400000
729.32	3.78800000	0.00600000
740.21	3.77800000	0.00100000
751.43	3.77000000	0.00500000
762.99	3.75800000	0.00100000
774.91	3.74900000	0.00100000
787.21	3.73800000	0.00000000
799.90	3.72600000	0.00080000
813.02	3.71800000	0.00000000
826.57	3.70900000	0.00000000
