; Refractive index spectrum for Cu by Johnson
;
; P. B. Johnson and R. W. Christy. Optical Constants of the Noble Metals, <a href="http://dx.doi.org/10.1103/PhysRevB.6.4370"><i>Phys. Rev. B</i> <b>6</b>, 4370-4379 (1972)</a>
;
; Room temperature
;
; lambda/nm    n     k
187.90 	0.94000000 	1.33700000 
191.60 	0.95000000 	1.38800000 
195.30 	0.97000000 	1.44000000 
199.30 	0.98000000 	1.49300000 
203.30 	0.99000000 	1.55000000 
207.30 	1.01000000 	1.59900000 
211.90 	1.04000000 	1.65100000 
216.40 	1.08000000 	1.69900000 
221.40 	1.13000000 	1.73700000 
226.20 	1.18000000 	1.76800000 
231.30 	1.23000000 	1.79200000 
237.10 	1.28000000 	1.80200000 
242.60 	1.34000000 	1.79900000 
249.00 	1.37000000 	1.78300000 
255.10 	1.41000000 	1.74100000 
261.60 	1.41000000 	1.69100000 
268.90 	1.45000000 	1.66800000 
276.10 	1.46000000 	1.64600000 
284.40 	1.45000000 	1.63300000 
292.40 	1.42000000 	1.63300000 
300.90 	1.40000000 	1.67900000 
310.70 	1.38000000 	1.72900000 
320.40 	1.38000000 	1.78300000 
331.50 	1.34000000 	1.82100000 
342.50 	1.36000000 	1.86400000 
354.20 	1.37000000 	1.91600000 
367.90 	1.36000000 	1.97500000 
381.50 	1.33000000 	2.04500000 
397.40 	1.32000000 	2.11600000 
413.30 	1.28000000 	2.20700000 
430.50 	1.25000000 	2.30500000 
450.90 	1.24000000 	2.39700000 
471.40 	1.25000000 	2.48300000 
495.90 	1.22000000 	2.56400000 
520.90 	1.18000000 	2.60800000 
548.60 	1.02000000 	2.57700000 
582.10 	0.70000000 	2.70400000 
616.80 	0.30000000 	3.20500000 
659.50 	0.22000000 	3.74700000 
704.50 	0.21000000 	4.20500000 
756.00 	0.24000000 	4.66500000 
821.10 	0.26000000 	5.18000000 
892.00 	0.30000000 	5.76800000 
984.00 	0.32000000 	6.42100000 
1088.00 	0.36000000 	7.21700000 
1216.00 	0.48000000 	8.24500000 
1393.00 	0.60000000 	9.43900000 
1610.00 	0.76000000 	11.12000000 
1937.00 	1.09000000 	13.43000000 
