; Refractive index spectrum for Cu by Rakic
;
; A. D. Rakić, A. B. Djurišic, J. M. Elazar, and M. L. Majewski. Optical properties of metallic films for vertical-cavity optoelectronic devices, <a href="http://dx.doi.org/10.1364/AO.37.005271"><i>Appl. Opt.</i> <b>37</b>, 5271-5283 (1998)</a>
;
; Fit of the experimental data from several sources to Brendel-Bormann (BB) model
;
; lambda/nm    n     k
206.60 	1.30297033 	1.68242565 
210.90 	1.32184504 	1.69997042 
215.28 	1.34329832 	1.71581568 
219.75 	1.36672176 	1.72924179 
224.32 	1.39138312 	1.73970819 
228.99 	1.41647478 	1.74685862 
233.75 	1.44115442 	1.75051562 
238.61 	1.46457707 	1.75066843 
243.57 	1.48591839 	1.74745836 
248.63 	1.50439048 	1.74116448 
253.80 	1.51925175 	1.73219245 
259.08 	1.52981311 	1.72106841 
264.46 	1.53544363 	1.70843993 
269.96 	1.53557993 	1.69508463 
275.57 	1.52974487 	1.68192610 
281.30 	1.51758203 	1.67005336 
287.15 	1.49891285 	1.66073657 
293.12 	1.47382053 	1.65542545 
299.21 	1.44275914 	1.65571114 
305.43 	1.40667326 	1.66322788 
311.78 	1.36709496 	1.67947497 
318.27 	1.32616410 	1.70555920 
324.88 	1.28651138 	1.74189878 
331.64 	1.25097293 	1.78797881 
338.53 	1.22217682 	1.84226800 
345.57 	1.20211949 	1.90236055 
352.75 	1.19186943 	1.96530838 
360.09 	1.19147314 	2.02802900 
367.57 	1.20004533 	2.08766818 
375.21 	1.21596820 	2.14185068 
383.01 	1.23712325 	2.18881296 
390.98 	1.26110683 	2.22744501 
399.10 	1.28540942 	2.25727437 
407.40 	1.30755635 	2.27841875 
415.87 	1.32521514 	2.29152437 
424.52 	1.33627667 	2.29770002 
433.34 	1.33891758 	2.29845269 
442.35 	1.33165111 	2.29562734 
451.55 	1.31337349 	2.29135046 
460.93 	1.28341276 	2.28797397 
470.52 	1.24158515 	2.28801098 
480.30 	1.18825936 	2.29405026 
490.28 	1.12441893 	2.30863221 
500.48 	1.05169752 	2.33407328 
510.88 	0.97234626 	2.37224306 
521.50 	0.88909176 	2.42433225 
532.34 	0.80487278 	2.49068402 
543.41 	0.72250253 	2.57076546 
554.71 	0.64435344 	2.66330823 
566.24 	0.57215899 	2.76657225 
578.01 	0.50696937 	2.87863958 
590.03 	0.44923175 	2.99765546 
602.30 	0.39893367 	3.12197936 
614.82 	0.35575482 	3.25025094 
627.60 	0.31919552 	3.38139633 
640.65 	0.28867186 	3.51460110 
653.96 	0.26357951 	3.64926986 
667.56 	0.24333303 	3.78498378 
681.44 	0.22738765 	3.92146196 
695.60 	0.21524966 	4.05852877 
710.07 	0.20647938 	4.19608729 
724.83 	0.20068995 	4.33409847 
739.90 	0.19754368 	4.47256496 
755.28 	0.19674721 	4.61151892 
770.98 	0.19804632 	4.75101280 
787.01 	0.20122077 	4.89111266 
803.37 	0.20607949 	5.03189322 
820.07 	0.21245614 	5.17343453 
837.12 	0.22020527 	5.31581952 
854.52 	0.22919894 	5.45913249 
872.29 	0.23932385 	5.60345821 
890.42 	0.25047890 	5.74888133 
908.93 	0.26257324 	5.89548620 
927.83 	0.27552455 	6.04335689 
947.12 	0.28925778 	6.19257724 
966.81 	0.30370404 	6.34323114 
986.91 	0.31879974 	6.49540270 
1007.43 	0.33448601 	6.64917655 
1028.37 	0.35070810 	6.80463801 
1049.75 	0.36741506 	6.96187340 
1071.57 	0.38455943 	7.12097011 
1093.85 	0.40209704 	7.28201687 
1116.59 	0.41998681 	7.44510376 
1139.80 	0.43819070 	7.61032239 
1163.50 	0.45667359 	7.77776590 
1187.69 	0.47540323 	7.94752900 
1212.38 	0.49435017 	8.11970801 
1237.58 	0.51348775 	8.29440081 
1263.31 	0.53279206 	8.47170685 
1289.57 	0.55224186 	8.65172707 
1316.38 	0.57181859 	8.83456391 
1343.75 	0.59150631 	9.02032122 
1371.69 	0.61129164 	9.20910422 
1400.20 	0.63116372 	9.40101944 
1429.31 	0.65111415 	9.59617470 
1459.03 	0.67113692 	9.79467900 
1489.36 	0.69122838 	9.99664254 
1520.32 	0.71138713 	10.20217666 
1551.93 	0.73161396 	10.41139379 
1584.19 	0.75191183 	10.62440743 
1617.13 	0.77228570 	10.84133217 
1650.75 	0.79274258 	11.06228361 
1685.06 	0.81329134 	11.28737844 
1720.10 	0.83394276 	11.51673437 
1755.85 	0.85470937 	11.75047016 
1792.36 	0.87560543 	11.98870568 
1829.62 	0.89664689 	12.23156185 
1867.66 	0.91785129 	12.47916075 
1906.48 	0.93923773 	12.73162561 
1946.12 	0.96082687 	12.98908086 
1986.58 	0.98264079 	13.25165215 
2027.88 	1.00470305 	13.51946644 
