; From SOPRA S.A. http://www.sopra-sa.com/indices.htm
; Filename    Symbol               Range (nm)     Description
; GAAS579T    GaAs                275      999    Gallium Arsenide (Temp: 579 C)
; lambda/nm       n         k
275.83	3.31080000	3.31510000
276.75	3.33840000	3.27680000
277.68	3.36920000	3.24170000
278.62	3.40140000	3.20410000
279.56	3.43400000	3.17160000
280.51	3.46310000	3.13910000
281.46	3.50170000	3.10740000
282.43	3.53100000	3.07420000
283.39	3.55220000	3.04210000
284.37	3.57060000	3.00600000
285.35	3.58790000	2.97140000
286.34	3.61140000	2.93220000
287.34	3.63120000	2.89550000
288.34	3.65110000	2.85310000
289.35	3.66800000	2.81680000
290.36	3.68490000	2.78190000
291.39	3.69830000	2.74870000
292.42	3.70880000	2.71670000
293.46	3.71710000	2.68340000
294.50	3.72140000	2.65110000
295.55	3.72730000	2.62060000
296.62	3.73280000	2.59090000
297.68	3.73640000	2.56090000
298.76	3.74080000	2.52960000
299.84	3.74140000	2.50260000
300.93	3.74360000	2.47010000
302.03	3.74400000	2.44350000
303.14	3.74360000	2.41690000
304.26	3.74460000	2.38770000
305.38	3.74270000	2.36200000
306.51	3.73960000	2.33610000
307.66	3.73280000	2.31400000
308.80	3.72810000	2.29390000
309.96	3.72430000	2.27470000
311.13	3.71700000	2.25490000
312.31	3.71300000	2.23610000
313.49	3.70800000	2.22080000
314.68	3.70320000	2.20430000
315.89	3.70000000	2.18780000
317.10	3.69860000	2.17260000
318.32	3.69360000	2.15500000
319.55	3.68430000	2.14040000
320.79	3.67870000	2.12650000
322.04	3.67190000	2.11340000
323.30	3.66400000	2.10010000
324.57	3.65860000	2.08820000
325.85	3.65410000	2.07680000
327.14	3.65090000	2.06630000
328.44	3.64970000	2.05790000
329.75	3.65120000	2.04950000
331.07	3.64920000	2.04420000
332.40	3.64750000	2.03330000
333.74	3.64640000	2.02850000
335.10	3.64680000	2.02000000
336.46	3.64390000	2.01090000
337.83	3.64210000	2.00090000
339.22	3.64070000	1.99250000
340.62	3.63980000	1.98440000
342.03	3.63880000	1.97830000
343.45	3.63790000	1.97350000
344.88	3.63670000	1.97260000
346.33	3.63720000	1.96690000
347.78	3.63610000	1.96750000
349.25	3.63640000	1.96410000
350.74	3.63420000	1.96260000
352.23	3.63480000	1.95930000
353.74	3.63650000	1.95680000
355.26	3.63830000	1.95500000
356.79	3.64020000	1.95330000
358.34	3.64340000	1.95180000
359.90	3.64660000	1.95080000
361.47	3.64870000	1.95110000
363.06	3.65030000	1.95090000
364.66	3.65260000	1.95030000
366.28	3.65600000	1.94970000
367.91	3.66120000	1.94880000
369.55	3.66670000	1.94920000
371.21	3.67250000	1.95050000
372.89	3.67810000	1.95120000
374.58	3.68450000	1.95260000
376.28	3.69180000	1.95320000
378.00	3.69810000	1.95580000
379.74	3.70550000	1.95820000
381.49	3.71360000	1.95960000
383.26	3.72270000	1.96130000
385.05	3.73250000	1.96430000
386.85	3.74280000	1.96740000
388.67	3.75340000	1.97080000
390.50	3.76420000	1.97350000
392.36	3.77620000	1.97530000
394.23	3.79010000	1.97610000
396.12	3.80400000	1.97880000
398.03	3.82000000	1.98140000
399.95	3.83540000	1.98360000
401.90	3.85260000	1.98650000
403.86	3.87070000	1.98890000
405.84	3.88980000	1.99130000
407.85	3.91010000	1.99230000
409.87	3.93110000	1.99310000
411.91	3.95320000	1.99320000
413.97	3.97590000	1.99310000
416.06	4.00050000	1.99240000
418.16	4.02620000	1.99090000
420.29	4.05290000	1.98750000
422.44	4.08180000	1.98290000
424.61	4.11200000	1.97630000
426.80	4.14310000	1.96780000
429.01	4.17560000	1.95720000
431.25	4.20800000	1.94490000
433.51	4.24010000	1.93150000
435.80	4.27240000	1.91610000
438.11	4.30450000	1.89760000
440.44	4.33530000	1.87770000
442.80	4.36620000	1.85620000
445.19	4.39620000	1.83310000
447.60	4.42570000	1.80930000
450.04	4.45420000	1.78430000
452.50	4.48320000	1.75820000
454.99	4.51110000	1.73120000
457.51	4.53950000	1.70310000
460.06	4.56760000	1.67400000
462.63	4.59580000	1.64270000
465.24	4.62380000	1.61040000
467.87	4.65220000	1.57540000
470.53	4.67890000	1.53590000
473.23	4.70530000	1.49430000
475.95	4.72890000	1.44810000
478.71	4.74950000	1.39760000
481.50	4.76680000	1.34350000
484.32	4.77940000	1.28660000
487.17	4.78680000	1.23060000
490.06	4.78990000	1.17260000
492.98	4.78760000	1.11520000
495.94	4.78060000	1.05810000
498.93	4.76850000	1.00390000
501.96	4.75330000	0.95329000
505.03	4.73440000	0.90534000
508.14	4.71400000	0.86046000
511.28	4.69280000	0.81894000
514.46	4.67100000	0.78032000
517.68	4.64850000	0.74502000
520.95	4.62630000	0.71057000
524.25	4.60360000	0.67832000
527.60	4.58060000	0.64878000
530.99	4.55830000	0.62230000
534.42	4.53530000	0.59776000
537.90	4.51260000	0.57559000
541.42	4.49120000	0.55521000
544.99	4.47000000	0.53698000
548.61	4.44930000	0.51845000
552.27	4.42890000	0.50158000
555.99	4.40910000	0.48475000
559.75	4.38950000	0.46951000
563.57	4.37050000	0.45450000
567.44	4.35270000	0.43920000
571.36	4.33450000	0.42451000
575.34	4.31680000	0.41182000
579.37	4.29970000	0.39891000
583.46	4.28150000	0.38851000
587.61	4.26370000	0.37619000
591.81	4.24720000	0.36438000
596.08	4.23020000	0.35505000
600.41	4.21340000	0.34765000
604.81	4.19690000	0.33837000
609.26	4.18100000	0.32959000
613.79	4.16530000	0.32213000
618.38	4.15020000	0.31582000
623.04	4.13540000	0.30843000
627.77	4.12130000	0.30064000
632.58	4.10810000	0.29171000
637.46	4.09570000	0.28295000
642.41	4.08310000	0.27677000
647.44	4.07040000	0.27203000
652.55	4.05820000	0.26598000
657.75	4.04660000	0.26086000
663.02	4.03520000	0.25709000
668.38	4.02400000	0.25382000
673.83	4.01340000	0.24955000
679.37	4.00260000	0.24679000
685.00	3.99240000	0.24301000
690.73	3.98210000	0.23703000
696.55	3.97290000	0.23104000
702.47	3.96340000	0.22766000
708.49	3.95390000	0.22244000
714.61	3.94520000	0.21667000
720.84	3.93620000	0.21221000
727.19	3.92740000	0.20779000
733.64	3.91930000	0.20053000
740.21	3.91060000	0.20101000
746.90	3.90220000	0.19490000
753.71	3.89450000	0.18947000
760.65	3.88790000	0.18703000
767.71	3.88170000	0.18545000
774.91	3.87540000	0.18365000
782.24	3.86910000	0.18101000
789.71	3.86220000	0.18000000
797.33	3.85590000	0.17510000
805.10	3.84980000	0.16955000
813.02	3.84290000	0.16582000
821.09	3.83490000	0.15847000
829.33	3.82830000	0.15403000
837.74	3.82200000	0.15150000
846.32	3.81700000	0.14849000
855.07	3.81140000	0.14511000
864.01	3.80540000	0.14262000
873.14	3.79910000	0.13817000
882.46	3.79320000	0.13113000
891.98	3.78730000	0.13169000
901.71	3.78060000	0.12455000
911.66	3.77440000	0.11910000
921.82	3.76870000	0.11661000
932.22	3.76380000	0.11899000
942.85	3.75910000	0.11891000
953.73	3.75000000	0.11838000
964.87	3.74500000	0.11644000
976.26	3.74010000	0.11459000
987.93	3.73530000	0.11271000
999.88	3.73060000	0.11089000
