; From SOPRA S.A. http://www.sopra-sa.com/indices.htm
; Filename    Symbol               Range (nm)     Description
; GAAS224T    GaAs                275      999    Gallium Arsenide (Temp: 224 C)
; lambda/nm       n         k
275.83	3.74630000	3.12930000
276.75	3.77290000	3.08900000
277.68	3.79810000	3.03510000
278.62	3.80720000	2.99000000
279.56	3.82870000	2.94020000
280.51	3.85440000	2.89360000
281.46	3.87060000	2.83960000
282.43	3.89400000	2.79200000
283.39	3.90480000	2.75240000
284.37	3.91300000	2.70830000
285.35	3.91500000	2.66050000
286.34	3.91860000	2.61910000
287.34	3.91430000	2.57890000
288.34	3.90720000	2.53900000
289.35	3.90310000	2.49490000
290.36	3.89660000	2.45910000
291.39	3.88440000	2.42200000
292.42	3.87760000	2.39330000
293.46	3.86250000	2.36420000
294.50	3.84840000	2.33420000
295.55	3.83620000	2.31300000
296.62	3.82590000	2.29250000
297.68	3.81600000	2.26520000
298.76	3.80630000	2.23800000
299.84	3.79460000	2.20770000
300.93	3.78440000	2.18640000
302.03	3.77380000	2.16520000
303.14	3.76190000	2.14250000
304.26	3.74880000	2.12510000
305.38	3.73340000	2.10880000
306.51	3.72070000	2.09820000
307.66	3.71010000	2.08310000
308.80	3.69990000	2.07010000
309.96	3.69170000	2.05860000
311.13	3.68140000	2.04720000
312.31	3.67310000	2.04090000
313.49	3.66390000	2.03370000
314.68	3.65200000	2.02450000
315.89	3.64110000	2.02000000
317.10	3.63050000	2.00890000
318.32	3.61910000	2.00330000
319.55	3.61280000	1.99500000
320.79	3.60640000	1.99010000
322.04	3.60050000	1.98250000
323.30	3.59090000	1.97920000
324.57	3.58240000	1.97810000
325.85	3.57670000	1.97480000
327.14	3.57280000	1.97080000
328.44	3.57140000	1.96750000
329.75	3.57170000	1.96190000
331.07	3.57110000	1.96210000
332.40	3.57340000	1.96080000
333.74	3.57600000	1.95920000
335.10	3.57530000	1.95560000
336.46	3.57120000	1.95680000
337.83	3.56720000	1.95600000
339.22	3.56450000	1.95480000
340.62	3.56310000	1.95300000
342.03	3.56190000	1.95400000
343.45	3.56190000	1.95550000
344.88	3.56300000	1.96060000
346.33	3.56390000	1.96370000
347.78	3.56620000	1.96730000
349.25	3.56830000	1.97030000
350.74	3.57090000	1.97370000
352.23	3.57490000	1.97660000
353.74	3.57840000	1.98090000
355.26	3.58360000	1.98420000
356.79	3.58870000	1.98970000
358.34	3.59520000	1.99450000
359.90	3.60180000	1.99970000
361.47	3.60810000	2.00410000
363.06	3.61520000	2.00920000
364.66	3.62280000	2.01520000
366.28	3.63180000	2.02040000
367.91	3.64130000	2.02490000
369.55	3.65090000	2.03100000
371.21	3.66170000	2.03740000
372.89	3.67210000	2.04490000
374.58	3.68560000	2.05360000
376.28	3.69910000	2.06190000
378.00	3.71430000	2.07120000
379.74	3.73060000	2.08030000
381.49	3.74840000	2.09140000
383.26	3.76790000	2.10200000
385.05	3.78860000	2.11130000
386.85	3.81110000	2.12190000
388.67	3.83500000	2.13180000
390.50	3.86150000	2.14190000
392.36	3.89150000	2.15300000
394.23	3.92430000	2.16300000
396.12	3.96130000	2.17190000
398.03	4.00170000	2.18020000
399.95	4.04640000	2.18530000
401.90	4.09500000	2.18670000
403.86	4.14590000	2.18120000
405.84	4.19860000	2.17010000
407.85	4.24930000	2.15150000
409.87	4.29900000	2.12770000
411.91	4.34400000	2.09970000
413.97	4.38490000	2.06960000
416.06	4.42170000	2.03800000
418.16	4.45520000	2.00800000
420.29	4.48660000	1.97880000
422.44	4.51570000	1.95200000
424.61	4.54690000	1.92790000
426.80	4.57980000	1.90660000
429.01	4.61790000	1.88510000
431.25	4.66390000	1.86200000
433.51	4.71590000	1.83440000
435.80	4.77440000	1.79870000
438.11	4.83650000	1.74860000
440.44	4.89710000	1.68490000
442.80	4.94960000	1.60900000
445.19	4.98950000	1.52230000
447.60	5.01450000	1.43030000
450.04	5.02360000	1.33920000
452.50	5.01990000	1.24930000
454.99	5.00700000	1.16610000
457.51	4.98550000	1.09070000
460.06	4.95970000	1.02180000
462.63	4.92950000	0.95916000
465.24	4.89740000	0.90399000
467.87	4.86470000	0.85414000
470.53	4.83100000	0.80796000
473.23	4.79820000	0.76629000
475.95	4.76530000	0.72902000
478.71	4.73210000	0.69422000
481.50	4.69950000	0.66357000
484.32	4.66730000	0.63450000
487.17	4.63660000	0.60796000
490.06	4.60520000	0.58437000
492.98	4.57600000	0.56132000
495.94	4.54710000	0.53923000
498.93	4.51930000	0.51875000
501.96	4.49310000	0.50007000
505.03	4.46700000	0.48201000
508.14	4.44100000	0.46580000
511.28	4.41580000	0.45161000
514.46	4.39210000	0.43770000
517.68	4.36980000	0.42473000
520.95	4.34750000	0.41238000
524.25	4.32650000	0.39918000
527.60	4.30540000	0.38827000
530.99	4.28550000	0.37805000
534.42	4.26560000	0.36915000
537.90	4.24680000	0.35876000
541.42	4.22820000	0.34982000
544.99	4.21080000	0.34117000
548.61	4.19330000	0.33315000
552.27	4.17700000	0.32521000
555.99	4.16070000	0.31791000
559.75	4.14490000	0.31050000
563.57	4.12930000	0.30436000
567.44	4.11460000	0.29809000
571.36	4.09970000	0.29239000
575.34	4.08570000	0.28642000
579.37	4.07180000	0.28081000
583.46	4.05810000	0.27460000
587.61	4.04410000	0.26950000
591.81	4.03120000	0.26404000
596.08	4.01830000	0.25959000
600.41	4.00540000	0.25459000
604.81	3.99300000	0.25008000
609.26	3.98110000	0.24631000
613.79	3.96960000	0.24249000
618.38	3.95840000	0.23854000
623.04	3.94790000	0.23361000
627.77	3.93730000	0.22878000
632.58	3.92680000	0.22523000
637.46	3.91700000	0.22204000
642.41	3.90730000	0.21931000
647.44	3.89750000	0.21639000
652.55	3.88810000	0.21348000
657.75	3.87920000	0.21039000
663.02	3.87050000	0.20677000
668.38	3.86240000	0.20281000
673.83	3.85470000	0.19819000
679.37	3.84760000	0.19473000
685.00	3.84100000	0.19293000
690.73	3.83390000	0.19161000
696.55	3.82730000	0.19155000
702.47	3.82170000	0.18949000
708.49	3.81600000	0.18719000
714.61	3.81020000	0.18391000
720.84	3.80430000	0.17830000
727.19	3.79930000	0.17187000
733.64	3.79370000	0.16477000
740.21	3.78750000	0.15655000
746.90	3.78100000	0.15535000
753.71	3.77410000	0.15220000
760.65	3.76750000	0.15130000
767.71	3.76090000	0.15008000
774.91	3.75310000	0.14649000
782.24	3.74560000	0.14183000
789.71	3.73780000	0.13451000
797.33	3.73110000	0.12901000
805.10	3.72450000	0.12346000
813.02	3.71770000	0.11940000
821.09	3.71100000	0.11336000
829.33	3.70650000	0.10624000
837.74	3.70240000	0.10439000
846.32	3.69810000	0.10395000
855.07	3.69450000	0.10083000
864.01	3.69040000	0.10250000
873.14	3.68640000	0.10231000
882.46	3.68330000	0.10651000
891.98	3.67770000	0.10485000
901.71	3.67560000	0.09996500
911.66	3.67700000	0.08872700
921.82	3.67520000	0.08138800
932.22	3.67050000	0.07873600
942.85	3.66210000	0.07989100
953.73	3.65860000	0.07916600
964.87	3.65510000	0.07846700
976.26	3.65160000	0.07778700
987.93	3.64810000	0.07712300
999.88	3.64470000	0.07647600
