; From SOPRA S.A. http://www.sopra-sa.com/indices.htm
; Filename    Symbol               Range (nm)     Description
; GAAS273T    GaAs                275      999    Gallium Arsenide (Temp: 273 C)
; lambda/nm       n         k
275.83	3.70150000	3.12900000
276.75	3.72310000	3.08420000
277.68	3.74960000	3.03630000
278.62	3.77270000	3.00070000
279.56	3.79510000	2.95850000
280.51	3.82520000	2.92380000
281.46	3.83980000	2.88230000
282.43	3.86150000	2.84180000
283.39	3.86810000	2.79110000
284.37	3.87940000	2.74280000
285.35	3.88470000	2.70030000
286.34	3.87780000	2.65750000
287.34	3.86980000	2.61360000
288.34	3.86620000	2.57710000
289.35	3.86250000	2.53740000
290.36	3.85810000	2.50780000
291.39	3.85240000	2.46840000
292.42	3.85270000	2.43140000
293.46	3.84970000	2.39160000
294.50	3.84720000	2.36140000
295.55	3.84070000	2.33600000
296.62	3.83240000	2.30760000
297.68	3.82420000	2.28390000
298.76	3.81570000	2.26130000
299.84	3.80510000	2.23910000
300.93	3.79360000	2.21700000
302.03	3.77950000	2.19410000
303.14	3.76690000	2.17100000
304.26	3.75710000	2.15290000
305.38	3.74410000	2.13510000
306.51	3.73050000	2.12050000
307.66	3.72200000	2.10660000
308.80	3.71500000	2.09090000
309.96	3.70600000	2.07660000
311.13	3.69410000	2.06510000
312.31	3.68310000	2.05040000
313.49	3.67400000	2.03840000
314.68	3.66460000	2.02770000
315.89	3.66000000	2.02090000
317.10	3.64860000	2.01380000
318.32	3.64260000	2.00780000
319.55	3.63710000	2.00410000
320.79	3.63090000	1.99700000
322.04	3.62470000	1.99160000
323.30	3.61660000	1.98860000
324.57	3.60860000	1.98090000
325.85	3.59970000	1.97500000
327.14	3.59090000	1.97080000
328.44	3.58490000	1.96890000
329.75	3.57510000	1.96660000
331.07	3.57250000	1.96710000
332.40	3.56630000	1.96610000
333.74	3.56750000	1.96150000
335.10	3.57150000	1.95650000
336.46	3.57450000	1.95250000
337.83	3.57570000	1.94750000
339.22	3.57540000	1.94430000
340.62	3.57770000	1.94270000
342.03	3.57700000	1.94310000
343.45	3.57600000	1.94580000
344.88	3.57800000	1.94980000
346.33	3.57670000	1.95140000
347.78	3.57970000	1.95330000
349.25	3.58170000	1.95580000
350.74	3.58370000	1.95820000
352.23	3.58600000	1.96180000
353.74	3.58890000	1.96470000
355.26	3.59260000	1.96750000
356.79	3.59600000	1.97170000
358.34	3.60140000	1.97590000
359.90	3.60690000	1.98010000
361.47	3.61260000	1.98600000
363.06	3.61880000	1.99100000
364.66	3.62570000	1.99520000
366.28	3.63290000	1.99910000
367.91	3.64040000	2.00480000
369.55	3.64950000	2.01110000
371.21	3.65920000	2.01760000
372.89	3.67010000	2.02430000
374.58	3.68190000	2.03160000
376.28	3.69420000	2.03820000
378.00	3.70790000	2.04570000
379.74	3.72330000	2.05170000
381.49	3.73930000	2.05830000
383.26	3.75620000	2.06430000
385.05	3.77370000	2.07220000
386.85	3.79320000	2.08110000
388.67	3.81570000	2.08940000
390.50	3.83920000	2.09830000
392.36	3.86380000	2.10880000
394.23	3.89080000	2.11710000
396.12	3.92160000	2.12550000
398.03	3.95550000	2.13350000
399.95	3.99310000	2.13950000
401.90	4.03400000	2.14140000
403.86	4.07660000	2.14180000
405.84	4.12260000	2.13860000
407.85	4.17040000	2.13020000
409.87	4.21790000	2.11770000
411.91	4.26410000	2.10090000
413.97	4.30790000	2.07860000
416.06	4.35060000	2.05310000
418.16	4.38920000	2.02520000
420.29	4.42500000	1.99540000
422.44	4.45740000	1.96540000
424.61	4.48760000	1.93690000
426.80	4.51790000	1.91030000
429.01	4.54920000	1.88590000
431.25	4.58410000	1.86130000
433.51	4.62340000	1.83710000
435.80	4.66630000	1.81030000
438.11	4.71650000	1.77680000
440.44	4.77050000	1.73550000
442.80	4.82440000	1.68580000
445.19	4.87430000	1.62430000
447.60	4.91860000	1.55110000
450.04	4.95070000	1.47210000
452.50	4.97150000	1.38760000
454.99	4.98050000	1.30250000
457.51	4.97730000	1.21970000
460.06	4.96430000	1.14320000
462.63	4.94600000	1.07160000
465.24	4.92200000	1.00710000
467.87	4.89370000	0.95048000
470.53	4.86350000	0.89677000
473.23	4.83160000	0.84851000
475.95	4.79970000	0.80494000
478.71	4.76820000	0.76405000
481.50	4.73690000	0.72693000
484.32	4.70490000	0.69302000
487.17	4.67480000	0.66184000
490.06	4.64520000	0.63249000
492.98	4.61500000	0.60622000
495.94	4.58470000	0.58207000
498.93	4.55590000	0.55853000
501.96	4.52790000	0.53801000
505.03	4.50100000	0.51735000
508.14	4.47480000	0.49924000
511.28	4.44920000	0.48240000
514.46	4.42460000	0.46593000
517.68	4.40070000	0.45108000
520.95	4.37810000	0.43575000
524.25	4.35520000	0.42237000
527.60	4.33340000	0.40902000
530.99	4.31290000	0.39703000
534.42	4.29300000	0.38540000
537.90	4.27390000	0.37454000
541.42	4.25530000	0.36446000
544.99	4.23790000	0.35441000
548.61	4.22100000	0.34446000
552.27	4.20430000	0.33728000
555.99	4.18800000	0.32915000
559.75	4.17140000	0.32259000
563.57	4.15530000	0.31582000
567.44	4.13970000	0.30954000
571.36	4.12360000	0.30413000
575.34	4.10860000	0.29938000
579.37	4.09380000	0.29347000
583.46	4.08000000	0.28786000
587.61	4.06680000	0.28118000
591.81	4.05320000	0.27710000
596.08	4.04010000	0.27106000
600.41	4.02740000	0.26469000
604.81	4.01490000	0.25891000
609.26	4.00280000	0.25257000
613.79	3.99010000	0.24815000
618.38	3.97900000	0.24356000
623.04	3.96740000	0.23947000
627.77	3.95640000	0.23612000
632.58	3.94550000	0.23226000
637.46	3.93500000	0.22892000
642.41	3.92500000	0.22579000
647.44	3.91520000	0.22237000
652.55	3.90590000	0.21981000
657.75	3.89700000	0.21663000
663.02	3.88820000	0.21366000
668.38	3.88020000	0.20992000
673.83	3.87180000	0.20752000
679.37	3.86410000	0.20404000
685.00	3.85690000	0.20085000
690.73	3.85020000	0.19778000
696.55	3.84280000	0.19527000
702.47	3.83570000	0.19098000
708.49	3.82890000	0.18838000
714.61	3.82280000	0.18673000
720.84	3.81690000	0.18232000
727.19	3.81070000	0.17761000
733.64	3.80490000	0.17036000
740.21	3.79910000	0.16616000
746.90	3.79470000	0.15876000
753.71	3.78990000	0.15196000
760.65	3.78370000	0.14714000
767.71	3.77740000	0.14317000
774.91	3.77090000	0.14373000
782.24	3.76270000	0.14016000
789.71	3.75400000	0.13459000
797.33	3.74520000	0.13191000
805.10	3.73630000	0.12396000
813.02	3.72900000	0.12237000
821.09	3.72510000	0.12220000
829.33	3.72090000	0.12676000
837.74	3.71490000	0.13077000
846.32	3.70890000	0.13200000
855.07	3.70270000	0.13096000
864.01	3.69820000	0.12592000
873.14	3.69360000	0.12041000
882.46	3.68880000	0.11277000
891.98	3.68660000	0.10473000
901.71	3.68390000	0.09980700
911.66	3.68610000	0.10750000
921.82	3.68220000	0.10378000
932.22	3.67850000	0.09607000
942.85	3.67240000	0.08432700
953.73	3.66890000	0.08352400
964.87	3.66540000	0.08282000
976.26	3.66180000	0.08212500
987.93	3.65830000	0.08145600
999.88	3.65490000	0.08080700
