; From SOPRA S.A. http://www.sopra-sa.com/indices.htm
; Filename    Symbol               Range (nm)     Description
; GAAS199T    GaAs                275      999    Gallium Arsenide (Temp: 199 C)
; lambda/nm       n         k
275.83	3.77920000	3.09420000
276.75	3.80150000	3.05510000
277.68	3.83080000	3.01770000
278.62	3.85580000	2.97910000
279.56	3.87700000	2.93010000
280.51	3.88670000	2.87050000
281.46	3.90720000	2.82520000
282.43	3.92620000	2.78320000
283.39	3.93110000	2.74530000
284.37	3.93700000	2.70090000
285.35	3.93570000	2.65300000
286.34	3.93110000	2.60490000
287.34	3.92330000	2.56480000
288.34	3.91600000	2.52240000
289.35	3.90540000	2.47720000
290.36	3.89000000	2.43220000
291.39	3.88430000	2.39650000
292.42	3.87750000	2.36590000
293.46	3.86550000	2.33240000
294.50	3.85850000	2.30220000
295.55	3.84910000	2.27380000
296.62	3.84060000	2.24550000
297.68	3.82780000	2.22180000
298.76	3.81650000	2.19940000
299.84	3.80160000	2.17610000
300.93	3.78780000	2.15560000
302.03	3.77280000	2.14310000
303.14	3.76110000	2.12950000
304.26	3.74810000	2.11060000
305.38	3.73570000	2.09610000
306.51	3.72050000	2.08580000
307.66	3.70710000	2.07270000
308.80	3.69360000	2.05940000
309.96	3.68520000	2.04880000
311.13	3.67380000	2.03530000
312.31	3.66320000	2.02890000
313.49	3.65180000	2.02290000
314.68	3.63990000	2.01400000
315.89	3.63040000	2.00500000
317.10	3.62300000	1.99850000
318.32	3.61350000	1.99180000
319.55	3.60560000	1.98510000
320.79	3.60150000	1.97990000
322.04	3.60060000	1.97660000
323.30	3.59540000	1.96940000
324.57	3.59060000	1.96800000
325.85	3.58770000	1.96520000
327.14	3.58120000	1.96290000
328.44	3.57430000	1.96140000
329.75	3.57080000	1.95900000
331.07	3.56210000	1.95780000
332.40	3.55120000	1.95790000
333.74	3.54640000	1.95570000
335.10	3.54330000	1.95430000
336.46	3.54100000	1.95000000
337.83	3.54400000	1.94970000
339.22	3.55030000	1.94850000
340.62	3.55540000	1.94810000
342.03	3.55840000	1.95040000
343.45	3.56490000	1.95140000
344.88	3.56300000	1.95590000
346.33	3.56210000	1.95890000
347.78	3.56440000	1.96330000
349.25	3.56620000	1.96830000
350.74	3.56900000	1.97180000
352.23	3.57340000	1.97680000
353.74	3.57820000	1.98100000
355.26	3.58400000	1.98650000
356.79	3.58840000	1.99320000
358.34	3.59350000	1.99810000
359.90	3.59870000	2.00440000
361.47	3.60630000	2.00990000
363.06	3.61360000	2.01610000
364.66	3.62240000	2.02100000
366.28	3.63160000	2.02760000
367.91	3.64160000	2.03550000
369.55	3.65340000	2.04190000
371.21	3.66500000	2.05010000
372.89	3.67740000	2.05950000
374.58	3.69080000	2.06880000
376.28	3.70530000	2.07940000
378.00	3.72060000	2.08860000
379.74	3.73740000	2.09740000
381.49	3.75690000	2.10590000
383.26	3.77690000	2.11680000
385.05	3.79800000	2.12720000
386.85	3.82190000	2.13800000
388.67	3.84820000	2.14930000
390.50	3.87830000	2.16100000
392.36	3.91120000	2.17250000
394.23	3.94690000	2.18380000
396.12	3.98650000	2.19190000
398.03	4.03160000	2.19870000
399.95	4.08150000	2.19890000
401.90	4.13390000	2.19570000
403.86	4.18810000	2.18690000
405.84	4.24230000	2.17170000
407.85	4.29500000	2.14950000
409.87	4.34420000	2.12160000
411.91	4.38750000	2.09040000
413.97	4.42490000	2.05900000
416.06	4.45870000	2.02620000
418.16	4.48880000	1.99680000
420.29	4.51740000	1.96890000
422.44	4.54610000	1.94520000
424.61	4.57800000	1.92450000
426.80	4.61380000	1.90610000
429.01	4.65970000	1.88620000
431.25	4.71410000	1.86060000
433.51	4.77570000	1.82840000
435.80	4.84260000	1.78260000
438.11	4.90860000	1.71780000
440.44	4.96700000	1.63930000
442.80	5.01240000	1.54860000
445.19	5.04020000	1.45080000
447.60	5.04960000	1.35320000
450.04	5.04500000	1.25970000
452.50	5.03030000	1.17260000
454.99	5.00770000	1.09490000
457.51	4.97960000	1.02570000
460.06	4.94820000	0.96336000
462.63	4.91490000	0.90600000
465.24	4.88100000	0.85584000
467.87	4.84680000	0.81067000
470.53	4.81190000	0.77024000
473.23	4.77690000	0.73380000
475.95	4.74360000	0.69951000
478.71	4.71060000	0.66819000
481.50	4.67850000	0.64036000
484.32	4.64670000	0.61288000
487.17	4.61620000	0.58795000
490.06	4.58730000	0.56366000
492.98	4.55870000	0.54101000
495.94	4.53070000	0.51949000
498.93	4.50320000	0.49984000
501.96	4.47600000	0.48175000
505.03	4.44980000	0.46564000
508.14	4.42420000	0.45150000
511.28	4.39970000	0.43858000
514.46	4.37620000	0.42556000
517.68	4.35390000	0.41360000
520.95	4.33220000	0.40242000
524.25	4.31090000	0.39119000
527.60	4.29050000	0.37974000
530.99	4.27090000	0.36921000
534.42	4.25120000	0.35967000
537.90	4.23220000	0.35042000
541.42	4.21380000	0.34239000
544.99	4.19640000	0.33351000
548.61	4.17980000	0.32568000
552.27	4.16340000	0.31820000
555.99	4.14750000	0.31126000
559.75	4.13220000	0.30462000
563.57	4.11760000	0.29730000
567.44	4.10300000	0.29217000
571.36	4.08820000	0.28757000
575.34	4.07430000	0.28180000
579.37	4.06060000	0.27763000
583.46	4.04730000	0.27217000
587.61	4.03440000	0.26555000
591.81	4.02170000	0.25831000
596.08	4.00900000	0.25194000
600.41	3.99680000	0.24665000
604.81	3.98460000	0.24038000
609.26	3.97250000	0.23668000
613.79	3.96100000	0.23254000
618.38	3.94970000	0.22856000
623.04	3.93860000	0.22665000
627.77	3.92820000	0.22453000
632.58	3.91780000	0.22288000
637.46	3.90820000	0.21936000
642.41	3.89890000	0.21710000
647.44	3.88970000	0.21354000
652.55	3.88050000	0.21055000
657.75	3.87220000	0.20599000
663.02	3.86430000	0.20153000
668.38	3.85630000	0.19819000
673.83	3.84900000	0.19528000
679.37	3.84220000	0.19205000
685.00	3.83520000	0.19026000
690.73	3.82910000	0.18760000
696.55	3.82280000	0.18559000
702.47	3.81600000	0.18292000
708.49	3.80940000	0.18138000
714.61	3.80270000	0.17852000
720.84	3.79690000	0.17500000
727.19	3.79090000	0.16832000
733.64	3.78550000	0.16393000
740.21	3.77970000	0.16000000
746.90	3.77300000	0.15353000
753.71	3.76640000	0.14831000
760.65	3.75880000	0.14091000
767.71	3.75210000	0.13851000
774.91	3.74400000	0.13872000
782.24	3.73580000	0.13702000
789.71	3.72860000	0.13536000
797.33	3.72190000	0.13228000
805.10	3.71350000	0.13043000
813.02	3.70670000	0.12490000
821.09	3.70350000	0.12131000
829.33	3.70370000	0.12372000
837.74	3.69480000	0.11260000
846.32	3.68640000	0.10507000
855.07	3.68000000	0.10310000
864.01	3.67450000	0.09585300
873.14	3.67070000	0.09306200
882.46	3.66940000	0.08756200
891.98	3.66910000	0.08123800
901.71	3.67030000	0.07759000
911.66	3.66970000	0.08202500
921.82	3.66580000	0.08615600
932.22	3.65730000	0.08130600
942.85	3.64400000	0.08987600
953.73	3.64010000	0.08868700
964.87	3.63620000	0.08750900
976.26	3.63230000	0.08635800
987.93	3.62850000	0.08521700
999.88	3.62470000	0.08408600
