; From SOPRA S.A. http://www.sopra-sa.com/indices.htm
; Filename    Symbol               Range (nm)     Description
; GAAS041T    GaAs                275      999    Gallium Arsenide (Temp: 41 C)
; lambda/nm       n         k
275.83	3.95480000	2.97940000
276.75	3.99210000	2.93610000
277.68	4.02510000	2.90530000
278.62	4.04220000	2.84950000
279.56	4.04620000	2.78780000
280.51	4.04640000	2.72700000
281.46	4.03570000	2.67330000
282.43	4.04050000	2.61480000
283.39	4.02560000	2.57630000
284.37	4.00750000	2.52670000
285.35	3.99040000	2.48660000
286.34	3.98330000	2.43840000
287.34	3.96370000	2.39160000
288.34	3.95050000	2.34160000
289.35	3.93470000	2.29900000
290.36	3.92680000	2.26750000
291.39	3.91620000	2.24490000
292.42	3.89850000	2.22770000
293.46	3.87650000	2.20270000
294.50	3.85770000	2.17750000
295.55	3.83520000	2.15910000
296.62	3.81310000	2.13690000
297.68	3.78920000	2.11400000
298.76	3.77590000	2.10100000
299.84	3.75500000	2.08350000
300.93	3.74280000	2.07200000
302.03	3.72890000	2.05730000
303.14	3.71480000	2.04420000
304.26	3.70050000	2.02600000
305.38	3.68810000	2.01430000
306.51	3.67700000	2.00310000
307.66	3.66720000	1.99050000
308.80	3.65560000	1.98360000
309.96	3.64100000	1.97940000
311.13	3.62460000	1.97320000
312.31	3.61010000	1.97020000
313.49	3.59760000	1.96890000
314.68	3.58590000	1.96730000
315.89	3.58070000	1.96450000
317.10	3.57200000	1.96590000
318.32	3.56710000	1.96830000
319.55	3.56320000	1.97290000
320.79	3.55470000	1.97380000
322.04	3.54740000	1.96820000
323.30	3.54520000	1.96470000
324.57	3.54170000	1.96040000
325.85	3.54030000	1.96410000
327.14	3.53680000	1.96340000
328.44	3.53740000	1.96550000
329.75	3.53390000	1.96430000
331.07	3.53110000	1.96090000
332.40	3.52960000	1.95710000
333.74	3.52330000	1.95630000
335.10	3.51750000	1.95620000
336.46	3.51710000	1.95730000
337.83	3.51670000	1.96290000
339.22	3.52110000	1.96920000
340.62	3.52240000	1.97340000
342.03	3.52580000	1.98180000
343.45	3.52870000	1.98860000
344.88	3.53020000	1.99160000
346.33	3.53460000	1.99510000
347.78	3.53660000	2.00620000
349.25	3.54020000	2.01370000
350.74	3.54490000	2.02090000
352.23	3.55090000	2.02960000
353.74	3.55680000	2.03870000
355.26	3.56360000	2.04800000
356.79	3.57110000	2.05650000
358.34	3.57920000	2.06550000
359.90	3.58840000	2.07540000
361.47	3.59860000	2.08670000
363.06	3.61040000	2.09750000
364.66	3.62240000	2.10820000
366.28	3.63530000	2.12020000
367.91	3.64930000	2.13320000
369.55	3.66400000	2.14550000
371.21	3.67960000	2.15880000
372.89	3.69620000	2.17290000
374.58	3.71460000	2.18750000
376.28	3.73410000	2.20400000
378.00	3.75690000	2.22030000
379.74	3.78270000	2.23910000
381.49	3.81150000	2.26020000
383.26	3.84640000	2.28270000
385.05	3.88810000	2.30570000
386.85	3.93730000	2.32730000
388.67	3.99660000	2.34480000
390.50	4.06440000	2.35650000
392.36	4.13670000	2.35670000
394.23	4.21160000	2.34420000
396.12	4.28480000	2.31740000
398.03	4.34920000	2.28170000
399.95	4.40390000	2.23660000
401.90	4.44650000	2.18850000
403.86	4.47910000	2.14300000
405.84	4.50470000	2.10290000
407.85	4.52520000	2.06870000
409.87	4.54380000	2.04440000
411.91	4.56240000	2.02920000
413.97	4.58870000	2.02310000
416.06	4.63220000	2.02360000
418.16	4.69300000	2.02620000
420.29	4.77680000	2.01890000
422.44	4.87820000	1.98940000
424.61	4.98870000	1.92860000
426.80	5.09380000	1.83510000
429.01	5.17330000	1.71140000
431.25	5.22170000	1.57040000
433.51	5.23340000	1.43180000
435.80	5.21890000	1.30420000
438.11	5.18780000	1.19350000
440.44	5.14640000	1.10170000
442.80	5.10300000	1.02420000
445.19	5.05830000	0.95713000
447.60	5.01440000	0.89956000
450.04	4.97100000	0.84933000
452.50	4.92790000	0.80291000
454.99	4.88750000	0.75972000
457.51	4.84690000	0.72347000
460.06	4.80880000	0.68882000
462.63	4.77010000	0.65905000
465.24	4.73410000	0.63038000
467.87	4.69920000	0.60511000
470.53	4.66640000	0.58143000
473.23	4.63510000	0.55990000
475.95	4.60440000	0.53890000
478.71	4.57480000	0.51962000
481.50	4.54590000	0.50163000
484.32	4.51740000	0.48515000
487.17	4.49050000	0.46946000
490.06	4.46360000	0.45562000
492.98	4.43890000	0.44005000
495.94	4.41270000	0.42734000
498.93	4.38930000	0.41233000
501.96	4.36580000	0.40022000
505.03	4.34290000	0.38724000
508.14	4.32110000	0.37773000
511.28	4.30060000	0.36600000
514.46	4.27950000	0.35732000
517.68	4.25930000	0.34857000
520.95	4.23900000	0.34161000
524.25	4.22000000	0.33140000
527.60	4.20060000	0.32395000
530.99	4.18290000	0.31571000
534.42	4.16530000	0.30886000
537.90	4.14840000	0.30254000
541.42	4.13220000	0.29713000
544.99	4.11650000	0.29157000
548.61	4.10080000	0.28840000
552.27	4.08600000	0.28294000
555.99	4.07130000	0.27872000
559.75	4.05760000	0.27111000
563.57	4.04440000	0.26621000
567.44	4.03160000	0.26208000
571.36	4.01900000	0.25583000
575.34	4.00690000	0.25129000
579.37	3.99450000	0.24554000
583.46	3.98260000	0.24252000
587.61	3.97080000	0.23759000
591.81	3.95850000	0.23310000
596.08	3.94660000	0.23023000
600.41	3.93520000	0.22527000
604.81	3.92450000	0.22134000
609.26	3.91420000	0.21785000
613.79	3.90420000	0.21368000
618.38	3.89470000	0.20973000
623.04	3.88510000	0.20477000
627.77	3.87610000	0.20257000
632.58	3.86710000	0.19958000
637.46	3.85830000	0.19724000
642.41	3.85020000	0.19430000
647.44	3.84210000	0.19232000
652.55	3.83480000	0.18889000
657.75	3.82770000	0.18574000
663.02	3.82030000	0.18248000
668.38	3.81370000	0.17799000
673.83	3.80770000	0.17188000
679.37	3.80140000	0.16790000
685.00	3.79640000	0.16351000
690.73	3.79140000	0.16093000
696.55	3.78640000	0.15531000
702.47	3.78010000	0.15086000
708.49	3.77320000	0.14490000
714.61	3.76520000	0.13873000
720.84	3.75730000	0.13423000
727.19	3.74830000	0.12652000
733.64	3.73990000	0.11917000
740.21	3.73150000	0.11210000
746.90	3.72440000	0.10958000
753.71	3.71650000	0.10901000
760.65	3.71060000	0.10832000
767.71	3.70480000	0.10975000
774.91	3.69730000	0.10728000
782.24	3.69080000	0.10459000
789.71	3.68410000	0.10242000
797.33	3.68170000	0.09950900
805.10	3.67560000	0.09152600
813.02	3.67000000	0.08023500
821.09	3.66410000	0.07219200
829.33	3.66030000	0.06795500
837.74	3.65840000	0.07032000
846.32	3.65730000	0.06911100
855.07	3.65790000	0.05814800
864.01	3.65620000	0.05530900
873.14	3.65070000	0.05827400
882.46	3.64190000	0.06708000
891.98	3.62730000	0.07297400
901.71	3.60820000	0.08229800
911.66	3.58710000	0.09742100
921.82	3.56960000	0.11282000
932.22	3.55760000	0.13303000
942.85	3.54570000	0.13938000
953.73	3.54040000	0.13662000
964.87	3.53520000	0.13393000
976.26	3.53020000	0.13128000
987.93	3.52520000	0.12870000
999.88	3.52050000	0.12617000
