; From SOPRA S.A. http://www.sopra-sa.com/indices.htm
; Filename    Symbol               Range (nm)     Description
; GAAS367T    GaAs                275      999    Gallium Arsenide (Temp: 367 C)
; lambda/nm       n         k
275.83	3.57300000	3.23010000
276.75	3.59950000	3.17250000
277.68	3.63540000	3.11030000
278.62	3.67970000	3.06370000
279.56	3.70270000	3.02490000
280.51	3.72320000	2.99730000
281.46	3.74100000	2.96470000
282.43	3.75970000	2.93080000
283.39	3.76350000	2.88850000
284.37	3.77650000	2.85750000
285.35	3.79390000	2.81300000
286.34	3.80760000	2.77200000
287.34	3.82610000	2.72870000
288.34	3.83410000	2.68880000
289.35	3.84210000	2.65540000
290.36	3.84340000	2.60960000
291.39	3.84610000	2.57960000
292.42	3.83130000	2.54470000
293.46	3.82500000	2.50630000
294.50	3.82130000	2.47070000
295.55	3.81710000	2.43510000
296.62	3.81440000	2.40690000
297.68	3.80860000	2.37660000
298.76	3.79900000	2.35110000
299.84	3.79690000	2.32410000
300.93	3.78470000	2.29300000
302.03	3.77670000	2.27230000
303.14	3.76410000	2.24200000
304.26	3.76080000	2.21930000
305.38	3.75910000	2.19100000
306.51	3.75280000	2.17470000
307.66	3.74180000	2.16320000
308.80	3.72570000	2.15280000
309.96	3.71880000	2.14290000
311.13	3.70760000	2.12610000
312.31	3.69260000	2.10950000
313.49	3.68260000	2.09820000
314.68	3.67150000	2.08310000
315.89	3.66700000	2.07550000
317.10	3.65970000	2.06370000
318.32	3.65330000	2.05520000
319.55	3.64400000	2.04850000
320.79	3.64140000	2.03860000
322.04	3.63970000	2.02850000
323.30	3.63530000	2.01930000
324.57	3.63050000	2.01400000
325.85	3.62450000	2.00930000
327.14	3.61440000	2.00460000
328.44	3.60750000	2.00640000
329.75	3.60040000	2.00430000
331.07	3.59860000	2.00040000
332.40	3.59550000	1.99710000
333.74	3.59700000	1.99130000
335.10	3.59590000	1.98720000
336.46	3.59770000	1.98280000
337.83	3.59800000	1.97810000
339.22	3.59410000	1.97110000
340.62	3.59070000	1.96570000
342.03	3.58770000	1.96310000
343.45	3.58660000	1.95940000
344.88	3.58510000	1.95770000
346.33	3.58260000	1.95740000
347.78	3.58290000	1.95940000
349.25	3.58390000	1.96110000
350.74	3.58600000	1.96260000
352.23	3.58950000	1.96460000
353.74	3.59410000	1.96550000
355.26	3.59780000	1.96770000
356.79	3.60120000	1.96970000
358.34	3.60540000	1.97240000
359.90	3.60910000	1.97600000
361.47	3.61370000	1.98080000
363.06	3.61840000	1.98470000
364.66	3.62320000	1.98900000
366.28	3.62920000	1.99290000
367.91	3.63600000	1.99460000
369.55	3.64440000	1.99850000
371.21	3.65210000	2.00200000
372.89	3.66040000	2.00540000
374.58	3.67030000	2.00920000
376.28	3.68040000	2.01270000
378.00	3.69140000	2.01770000
379.74	3.70390000	2.02310000
381.49	3.71660000	2.02800000
383.26	3.73040000	2.03340000
385.05	3.74640000	2.03810000
386.85	3.76240000	2.04650000
388.67	3.77960000	2.05320000
390.50	3.79820000	2.06100000
392.36	3.81880000	2.06790000
394.23	3.83960000	2.07440000
396.12	3.86200000	2.08050000
398.03	3.88730000	2.08670000
399.95	3.91380000	2.09170000
401.90	3.94370000	2.09570000
403.86	3.97720000	2.09910000
405.84	4.01050000	2.10180000
407.85	4.04580000	2.10200000
409.87	4.08460000	2.09980000
411.91	4.12440000	2.09370000
413.97	4.16480000	2.08540000
416.06	4.20600000	2.07210000
418.16	4.24660000	2.05610000
420.29	4.28730000	2.03730000
422.44	4.32680000	2.01590000
424.61	4.36570000	1.99210000
426.80	4.40060000	1.96690000
429.01	4.43380000	1.94060000
431.25	4.46720000	1.91180000
433.51	4.49840000	1.88440000
435.80	4.52960000	1.85850000
438.11	4.56340000	1.83120000
440.44	4.59920000	1.80430000
442.80	4.63720000	1.77600000
445.19	4.67870000	1.74470000
447.60	4.72300000	1.70670000
450.04	4.76490000	1.66160000
452.50	4.80690000	1.60800000
454.99	4.84540000	1.54650000
457.51	4.87570000	1.47950000
460.06	4.89950000	1.40850000
462.63	4.91330000	1.33490000
465.24	4.91910000	1.26260000
467.87	4.91570000	1.19450000
470.53	4.90580000	1.12750000
473.23	4.89060000	1.06400000
475.95	4.86870000	1.00530000
478.71	4.84490000	0.94959000
481.50	4.81970000	0.89598000
484.32	4.79250000	0.84692000
487.17	4.76460000	0.80261000
490.06	4.73360000	0.76353000
492.98	4.70310000	0.72816000
495.94	4.67330000	0.69576000
498.93	4.64370000	0.66412000
501.96	4.61570000	0.63405000
505.03	4.58790000	0.60656000
508.14	4.56080000	0.58109000
511.28	4.53540000	0.55630000
514.46	4.51030000	0.53507000
517.68	4.48620000	0.51561000
520.95	4.46090000	0.49857000
524.25	4.43590000	0.48259000
527.60	4.41230000	0.46722000
530.99	4.39010000	0.45116000
534.42	4.36800000	0.43726000
537.90	4.34700000	0.42413000
541.42	4.32620000	0.41181000
544.99	4.30660000	0.40162000
548.61	4.28710000	0.39244000
552.27	4.26830000	0.38388000
555.99	4.24890000	0.37599000
559.75	4.23100000	0.36833000
563.57	4.21480000	0.35871000
567.44	4.19930000	0.34681000
571.36	4.18320000	0.33928000
575.34	4.16770000	0.33106000
579.37	4.15250000	0.32305000
583.46	4.13770000	0.31620000
587.61	4.12260000	0.30949000
591.81	4.10710000	0.30235000
596.08	4.09210000	0.29598000
600.41	4.07750000	0.28987000
604.81	4.06340000	0.28247000
609.26	4.05010000	0.27635000
613.79	4.03580000	0.27367000
618.38	4.02310000	0.26950000
623.04	4.01100000	0.26767000
627.77	3.99940000	0.26510000
632.58	3.98830000	0.26114000
637.46	3.97780000	0.25371000
642.41	3.96810000	0.24838000
647.44	3.95730000	0.24055000
652.55	3.94720000	0.23591000
657.75	3.93780000	0.22999000
663.02	3.92710000	0.22557000
668.38	3.91850000	0.22289000
673.83	3.90970000	0.22315000
679.37	3.90040000	0.22273000
685.00	3.89090000	0.22320000
690.73	3.88250000	0.22105000
696.55	3.87490000	0.21544000
702.47	3.86760000	0.20966000
708.49	3.86110000	0.20487000
714.61	3.85470000	0.19998000
720.84	3.84910000	0.19373000
727.19	3.84350000	0.19029000
733.64	3.83780000	0.18725000
740.21	3.83170000	0.18470000
746.90	3.82450000	0.18751000
753.71	3.81620000	0.18525000
760.65	3.80790000	0.18134000
767.71	3.80010000	0.18032000
774.91	3.79360000	0.17517000
782.24	3.78570000	0.17030000
789.71	3.77920000	0.16106000
797.33	3.77270000	0.15365000
805.10	3.76600000	0.14666000
813.02	3.76070000	0.14684000
821.09	3.75360000	0.13431000
829.33	3.74810000	0.12701000
837.74	3.74320000	0.12617000
846.32	3.73780000	0.12587000
855.07	3.73350000	0.12554000
864.01	3.72660000	0.12470000
873.14	3.72050000	0.12465000
882.46	3.71480000	0.12747000
891.98	3.70740000	0.12431000
901.71	3.70250000	0.12769000
911.66	3.70300000	0.11407000
921.82	3.70050000	0.11922000
932.22	3.69720000	0.12492000
942.85	3.69450000	0.13023000
953.73	3.68930000	0.12895000
964.87	3.68410000	0.12766000
976.26	3.67910000	0.12639000
987.93	3.67470000	0.12308000
999.88	3.66920000	0.12387000
