; From SOPRA S.A. http://www.sopra-sa.com/indices.htm
; Filename    Symbol               Range (nm)     Description
; GAAS443T    GaAs                275      999    Gallium Arsenide (Temp: 443 C)
; lambda/nm       n         k
275.83	3.52070000	3.24330000
276.75	3.54160000	3.21390000
277.68	3.56950000	3.16300000
278.62	3.60270000	3.12100000
279.56	3.62070000	3.07790000
280.51	3.65630000	3.04310000
281.46	3.68620000	2.99870000
282.43	3.71720000	2.96340000
283.39	3.72720000	2.92510000
284.37	3.74090000	2.88590000
285.35	3.75120000	2.84740000
286.34	3.75800000	2.81080000
287.34	3.76550000	2.77130000
288.34	3.77690000	2.73600000
289.35	3.77810000	2.70110000
290.36	3.79050000	2.66360000
291.39	3.79670000	2.62420000
292.42	3.80340000	2.58640000
293.46	3.80300000	2.54890000
294.50	3.80040000	2.51890000
295.55	3.79660000	2.48630000
296.62	3.79360000	2.45530000
297.68	3.78810000	2.42650000
298.76	3.78480000	2.40130000
299.84	3.77940000	2.37310000
300.93	3.77420000	2.34990000
302.03	3.77240000	2.32530000
303.14	3.76830000	2.29810000
304.26	3.76310000	2.27550000
305.38	3.75390000	2.25230000
306.51	3.74720000	2.23110000
307.66	3.73880000	2.21220000
308.80	3.72740000	2.19530000
309.96	3.71820000	2.17900000
311.13	3.70760000	2.16010000
312.31	3.70080000	2.14500000
313.49	3.69490000	2.13000000
314.68	3.68770000	2.11680000
315.89	3.68080000	2.10490000
317.10	3.67380000	2.09050000
318.32	3.66700000	2.07900000
319.55	3.66180000	2.07040000
320.79	3.65610000	2.06100000
322.04	3.64830000	2.05040000
323.30	3.64050000	2.04170000
324.57	3.63560000	2.03370000
325.85	3.63210000	2.02710000
327.14	3.62770000	2.02680000
328.44	3.62520000	2.02500000
329.75	3.62320000	2.01950000
331.07	3.62230000	2.01540000
332.40	3.62260000	2.01090000
333.74	3.62030000	2.00350000
335.10	3.61400000	1.99600000
336.46	3.60960000	1.98810000
337.83	3.60630000	1.97880000
339.22	3.60350000	1.97180000
340.62	3.60010000	1.96910000
342.03	3.59880000	1.96480000
343.45	3.59790000	1.95970000
344.88	3.59800000	1.95890000
346.33	3.59670000	1.95780000
347.78	3.59640000	1.95810000
349.25	3.59740000	1.95740000
350.74	3.59920000	1.95670000
352.23	3.60060000	1.95570000
353.74	3.60240000	1.95560000
355.26	3.60450000	1.95710000
356.79	3.60690000	1.95870000
358.34	3.61020000	1.96100000
359.90	3.61340000	1.96350000
361.47	3.61730000	1.96550000
363.06	3.62250000	1.96800000
364.66	3.62720000	1.97050000
366.28	3.63240000	1.97260000
367.91	3.63780000	1.97360000
369.55	3.64390000	1.97610000
371.21	3.65000000	1.98050000
372.89	3.65770000	1.98340000
374.58	3.66730000	1.98610000
376.28	3.67740000	1.98840000
378.00	3.68820000	1.99260000
379.74	3.69930000	1.99650000
381.49	3.71030000	2.00210000
383.26	3.72220000	2.00780000
385.05	3.73460000	2.01300000
386.85	3.74740000	2.01860000
388.67	3.76110000	2.02480000
390.50	3.77630000	2.02760000
392.36	3.79240000	2.02980000
394.23	3.81050000	2.03330000
396.12	3.82980000	2.03730000
398.03	3.85130000	2.04090000
399.95	3.87400000	2.04540000
401.90	3.89770000	2.05070000
403.86	3.92470000	2.05480000
405.84	3.95210000	2.05760000
407.85	3.98090000	2.05990000
409.87	4.01110000	2.05950000
411.91	4.04260000	2.05810000
413.97	4.07710000	2.05530000
416.06	4.11260000	2.05020000
418.16	4.15020000	2.04260000
420.29	4.18810000	2.03230000
422.44	4.22610000	2.02000000
424.61	4.26330000	2.00380000
426.80	4.29910000	1.98530000
429.01	4.33480000	1.96470000
431.25	4.36930000	1.94110000
433.51	4.40250000	1.91570000
435.80	4.43520000	1.88990000
438.11	4.46750000	1.86210000
440.44	4.50060000	1.83460000
442.80	4.53320000	1.80790000
445.19	4.56560000	1.78010000
447.60	4.59850000	1.75160000
450.04	4.63320000	1.72040000
452.50	4.66910000	1.68590000
454.99	4.70540000	1.64620000
457.51	4.74190000	1.60130000
460.06	4.77700000	1.55120000
462.63	4.80880000	1.49180000
465.24	4.83550000	1.43230000
467.87	4.85420000	1.36860000
470.53	4.86500000	1.30200000
473.23	4.87120000	1.23680000
475.95	4.86690000	1.17180000
478.71	4.85820000	1.10760000
481.50	4.84400000	1.04710000
484.32	4.82540000	0.99062000
487.17	4.80320000	0.93815000
490.06	4.77870000	0.88851000
492.98	4.75290000	0.84491000
495.94	4.72560000	0.80210000
498.93	4.69810000	0.76384000
501.96	4.67170000	0.72846000
505.03	4.64450000	0.69295000
508.14	4.61830000	0.66044000
511.28	4.59210000	0.63243000
514.46	4.56550000	0.60645000
517.68	4.53950000	0.58436000
520.95	4.51450000	0.56104000
524.25	4.48930000	0.54004000
527.60	4.46570000	0.51988000
530.99	4.44270000	0.50224000
534.42	4.42060000	0.48532000
537.90	4.39960000	0.46795000
541.42	4.37870000	0.45296000
544.99	4.35790000	0.43975000
548.61	4.33780000	0.42713000
552.27	4.31900000	0.41435000
555.99	4.30050000	0.40154000
559.75	4.28190000	0.39227000
563.57	4.26380000	0.38325000
567.44	4.24660000	0.37501000
571.36	4.22880000	0.36871000
575.34	4.21110000	0.36151000
579.37	4.19500000	0.35171000
583.46	4.17820000	0.34436000
587.61	4.16220000	0.33706000
591.81	4.14660000	0.32754000
596.08	4.13210000	0.32061000
600.41	4.11800000	0.31494000
604.81	4.10300000	0.30866000
609.26	4.08930000	0.30236000
613.79	4.07490000	0.29797000
618.38	4.06130000	0.29095000
623.04	4.04930000	0.28294000
627.77	4.03660000	0.27606000
632.58	4.02460000	0.26977000
637.46	4.01240000	0.26541000
642.41	4.00100000	0.25938000
647.44	3.98930000	0.25788000
652.55	3.97690000	0.25411000
657.75	3.96620000	0.24821000
663.02	3.95530000	0.24636000
668.38	3.94550000	0.24275000
673.83	3.93710000	0.24019000
679.37	3.92660000	0.23641000
685.00	3.91730000	0.23567000
690.73	3.90790000	0.23444000
696.55	3.89880000	0.23136000
702.47	3.88930000	0.23322000
708.49	3.88130000	0.22833000
714.61	3.87490000	0.22234000
720.84	3.86790000	0.21656000
727.19	3.86190000	0.21242000
733.64	3.85540000	0.20893000
740.21	3.84690000	0.20347000
746.90	3.84250000	0.20147000
753.71	3.83730000	0.19771000
760.65	3.83270000	0.19292000
767.71	3.82620000	0.18989000
774.91	3.82150000	0.18469000
782.24	3.81640000	0.17935000
789.71	3.81000000	0.17590000
797.33	3.80190000	0.17443000
805.10	3.79370000	0.17468000
813.02	3.78590000	0.17325000
821.09	3.77980000	0.16931000
829.33	3.77540000	0.16483000
837.74	3.77120000	0.15935000
846.32	3.76490000	0.15632000
855.07	3.75860000	0.14833000
864.01	3.75220000	0.14262000
873.14	3.74540000	0.14013000
882.46	3.73810000	0.13484000
891.98	3.73200000	0.13626000
901.71	3.72590000	0.13240000
911.66	3.72180000	0.12531000
921.82	3.71930000	0.12973000
932.22	3.71570000	0.13317000
942.85	3.71210000	0.13799000
953.73	3.70660000	0.13637000
964.87	3.70120000	0.13476000
976.26	3.69590000	0.13316000
987.93	3.68390000	0.13018000
999.88	3.68560000	0.12999000
