; From SOPRA S.A. http://www.sopra-sa.com/indices.htm
; Filename    Symbol               Range (nm)     Description
; GAAS391T    GaAs                275      999    Gallium Arsenide (Temp: 391 C)
; lambda/nm       n         k
275.83	3.58110000	3.15940000
276.75	3.59940000	3.13910000
277.68	3.62820000	3.09960000
278.62	3.64220000	3.06280000
279.56	3.65760000	3.03430000
280.51	3.68880000	3.01460000
281.46	3.69950000	2.98260000
282.43	3.72070000	2.94710000
283.39	3.73170000	2.90420000
284.37	3.76570000	2.85940000
285.35	3.77860000	2.82840000
286.34	3.79230000	2.79480000
287.34	3.80840000	2.74160000
288.34	3.81470000	2.70310000
289.35	3.82270000	2.67080000
290.36	3.82960000	2.62430000
291.39	3.83120000	2.58430000
292.42	3.83320000	2.55000000
293.46	3.82140000	2.52200000
294.50	3.81310000	2.49130000
295.55	3.79650000	2.46520000
296.62	3.79090000	2.44100000
297.68	3.78990000	2.40290000
298.76	3.78230000	2.36680000
299.84	3.77030000	2.34370000
300.93	3.76010000	2.31250000
302.03	3.75800000	2.29130000
303.14	3.75410000	2.26750000
304.26	3.74990000	2.24700000
305.38	3.74140000	2.22450000
306.51	3.73620000	2.20800000
307.66	3.72630000	2.19100000
308.80	3.72260000	2.17000000
309.96	3.71170000	2.14970000
311.13	3.69800000	2.13600000
312.31	3.68490000	2.11600000
313.49	3.68410000	2.09770000
314.68	3.67860000	2.08460000
315.89	3.67350000	2.07340000
317.10	3.66840000	2.06270000
318.32	3.66080000	2.05570000
319.55	3.65110000	2.04660000
320.79	3.64920000	2.04120000
322.04	3.63940000	2.03450000
323.30	3.63630000	2.02610000
324.57	3.62800000	2.01350000
325.85	3.62630000	2.00480000
327.14	3.61860000	1.99850000
328.44	3.61170000	1.99460000
329.75	3.60540000	1.98810000
331.07	3.59810000	1.98330000
332.40	3.59000000	1.97750000
333.74	3.58720000	1.97530000
335.10	3.58150000	1.97070000
336.46	3.58160000	1.96740000
337.83	3.57960000	1.96330000
339.22	3.58080000	1.96250000
340.62	3.58400000	1.96070000
342.03	3.58640000	1.95940000
343.45	3.58920000	1.95840000
344.88	3.59200000	1.95890000
346.33	3.59310000	1.95880000
347.78	3.59570000	1.95840000
349.25	3.59590000	1.95910000
350.74	3.59490000	1.96130000
352.23	3.59530000	1.96110000
353.74	3.59790000	1.96190000
355.26	3.59960000	1.96240000
356.79	3.60040000	1.96320000
358.34	3.60390000	1.96330000
359.90	3.60860000	1.96640000
361.47	3.61230000	1.96840000
363.06	3.61830000	1.97190000
364.66	3.62270000	1.97610000
366.28	3.62850000	1.98030000
367.91	3.63530000	1.98280000
369.55	3.64370000	1.98690000
371.21	3.65200000	1.99020000
372.89	3.66100000	1.99430000
374.58	3.67140000	1.99670000
376.28	3.68190000	2.00340000
378.00	3.69130000	2.00870000
379.74	3.70350000	2.01450000
381.49	3.71490000	2.02050000
383.26	3.72710000	2.02620000
385.05	3.73980000	2.03200000
386.85	3.75490000	2.03750000
388.67	3.77060000	2.04270000
390.50	3.78820000	2.04840000
392.36	3.80650000	2.05310000
394.23	3.82640000	2.06070000
396.12	3.84820000	2.06590000
398.03	3.87320000	2.07070000
399.95	3.89910000	2.07680000
401.90	3.92690000	2.08020000
403.86	3.95720000	2.08270000
405.84	3.98990000	2.08420000
407.85	4.02370000	2.08540000
409.87	4.05990000	2.08460000
411.91	4.09700000	2.08210000
413.97	4.13550000	2.07680000
416.06	4.17540000	2.06700000
418.16	4.21520000	2.05460000
420.29	4.25390000	2.04040000
422.44	4.29270000	2.02060000
424.61	4.33060000	1.99670000
426.80	4.36630000	1.97210000
429.01	4.40130000	1.94600000
431.25	4.43560000	1.91880000
433.51	4.46740000	1.89250000
435.80	4.49810000	1.86570000
438.11	4.53120000	1.83830000
440.44	4.56520000	1.81160000
442.80	4.60040000	1.78370000
445.19	4.63820000	1.75240000
447.60	4.67730000	1.71790000
450.04	4.71670000	1.67970000
452.50	4.75770000	1.63350000
454.99	4.79670000	1.58190000
457.51	4.83160000	1.52310000
460.06	4.86000000	1.45850000
462.63	4.88250000	1.38870000
465.24	4.89660000	1.31700000
467.87	4.90130000	1.24540000
470.53	4.89840000	1.17580000
473.23	4.88850000	1.11070000
475.95	4.87190000	1.04960000
478.71	4.85230000	0.99000000
481.50	4.82900000	0.93690000
484.32	4.80240000	0.88622000
487.17	4.77550000	0.84040000
490.06	4.74620000	0.79795000
492.98	4.71760000	0.75802000
495.94	4.68770000	0.72190000
498.93	4.65900000	0.68840000
501.96	4.63080000	0.65852000
505.03	4.60240000	0.63114000
508.14	4.57460000	0.60437000
511.28	4.54750000	0.58060000
514.46	4.52130000	0.55806000
517.68	4.49740000	0.53679000
520.95	4.47160000	0.51731000
524.25	4.44810000	0.49798000
527.60	4.42460000	0.48164000
530.99	4.40280000	0.46657000
534.42	4.38110000	0.45386000
537.90	4.36020000	0.44000000
541.42	4.33940000	0.42632000
544.99	4.31970000	0.41348000
548.61	4.30070000	0.40149000
552.27	4.28250000	0.39020000
555.99	4.26330000	0.37973000
559.75	4.24630000	0.36814000
563.57	4.22850000	0.36088000
567.44	4.21170000	0.35365000
571.36	4.19510000	0.34653000
575.34	4.17870000	0.33731000
579.37	4.16280000	0.33095000
583.46	4.14730000	0.32448000
587.61	4.13190000	0.31677000
591.81	4.11770000	0.30891000
596.08	4.10340000	0.29980000
600.41	4.08960000	0.29251000
604.81	4.07550000	0.28632000
609.26	4.06250000	0.27982000
613.79	4.04970000	0.27439000
618.38	4.03620000	0.26838000
623.04	4.02400000	0.26578000
627.77	4.01090000	0.26170000
632.58	3.99900000	0.25667000
637.46	3.98750000	0.25258000
642.41	3.97570000	0.24713000
647.44	3.96450000	0.24413000
652.55	3.95390000	0.24059000
657.75	3.94410000	0.23748000
663.02	3.93430000	0.23520000
668.38	3.92490000	0.23198000
673.83	3.91610000	0.22915000
679.37	3.90740000	0.22595000
685.00	3.89960000	0.22008000
690.73	3.89080000	0.21923000
696.55	3.88330000	0.21310000
702.47	3.87620000	0.20857000
708.49	3.86850000	0.20560000
714.61	3.86090000	0.20059000
720.84	3.85410000	0.19705000
727.19	3.84730000	0.19420000
733.64	3.83940000	0.19273000
740.21	3.83160000	0.19333000
746.90	3.82500000	0.18918000
753.71	3.81760000	0.18980000
760.65	3.81250000	0.18922000
767.71	3.80650000	0.18594000
774.91	3.80060000	0.18399000
782.24	3.79500000	0.18000000
789.71	3.78910000	0.17537000
797.33	3.78270000	0.17037000
805.10	3.77570000	0.16529000
813.02	3.76730000	0.15521000
821.09	3.76180000	0.14882000
829.33	3.75560000	0.13892000
837.74	3.75020000	0.13343000
846.32	3.74460000	0.12634000
855.07	3.73910000	0.12625000
864.01	3.73200000	0.12054000
873.14	3.72590000	0.11844000
882.46	3.72220000	0.12340000
891.98	3.71670000	0.11830000
901.71	3.71100000	0.11339000
911.66	3.70760000	0.12192000
921.82	3.70380000	0.11979000
932.22	3.70070000	0.11967000
942.85	3.69580000	0.12285000
953.73	3.69090000	0.12137000
964.87	3.68610000	0.11990000
976.26	3.68140000	0.11847000
987.93	3.67680000	0.11706000
999.88	3.67220000	0.11567000
