; From SOPRA S.A. http://www.sopra-sa.com/indices.htm
; Filename    Symbol               Range (nm)     Description
; GAAS297T    GaAs                275      999    Gallium Arsenide (Temp: 297 C)
; lambda/nm       n         k
275.83	3.68870000	3.14530000
276.75	3.71340000	3.10280000
277.68	3.73580000	3.06250000
278.62	3.75560000	3.02090000
279.56	3.78550000	2.99700000
280.51	3.80100000	2.96460000
281.46	3.81540000	2.92290000
282.43	3.83350000	2.87950000
283.39	3.84030000	2.83580000
284.37	3.85280000	2.78910000
285.35	3.85570000	2.73920000
286.34	3.85860000	2.68870000
287.34	3.86360000	2.64380000
288.34	3.86560000	2.59220000
289.35	3.86720000	2.55640000
290.36	3.86570000	2.51680000
291.39	3.86330000	2.48000000
292.42	3.86070000	2.44800000
293.46	3.85180000	2.41430000
294.50	3.84370000	2.38330000
295.55	3.83320000	2.35940000
296.62	3.82590000	2.33300000
297.68	3.82240000	2.30200000
298.76	3.81520000	2.27700000
299.84	3.80940000	2.25380000
300.93	3.80330000	2.23010000
302.03	3.79350000	2.20590000
303.14	3.78230000	2.18700000
304.26	3.76760000	2.16640000
305.38	3.75290000	2.15000000
306.51	3.73670000	2.13380000
307.66	3.72450000	2.11480000
308.80	3.71490000	2.09390000
309.96	3.70420000	2.07670000
311.13	3.69720000	2.06280000
312.31	3.68990000	2.05200000
313.49	3.68430000	2.04560000
314.68	3.67570000	2.04430000
315.89	3.66630000	2.03850000
317.10	3.65690000	2.03410000
318.32	3.64870000	2.02630000
319.55	3.63920000	2.01610000
320.79	3.63200000	2.00820000
322.04	3.62690000	1.99890000
323.30	3.62180000	1.99110000
324.57	3.61300000	1.98610000
325.85	3.60940000	1.98440000
327.14	3.60090000	1.97880000
328.44	3.59600000	1.97430000
329.75	3.59010000	1.96850000
331.07	3.58810000	1.96210000
332.40	3.58450000	1.95310000
333.74	3.58420000	1.95000000
335.10	3.58370000	1.94420000
336.46	3.58320000	1.94010000
337.83	3.58050000	1.94080000
339.22	3.57970000	1.94230000
340.62	3.57780000	1.94130000
342.03	3.57710000	1.94480000
343.45	3.57490000	1.94690000
344.88	3.57560000	1.94890000
346.33	3.57720000	1.95020000
347.78	3.57970000	1.95160000
349.25	3.58200000	1.95430000
350.74	3.58480000	1.95720000
352.23	3.58790000	1.96000000
353.74	3.59090000	1.96280000
355.26	3.59550000	1.96590000
356.79	3.59870000	1.96950000
358.34	3.60350000	1.97370000
359.90	3.60890000	1.97690000
361.47	3.61440000	1.98080000
363.06	3.62000000	1.98450000
364.66	3.62650000	1.98920000
366.28	3.63320000	1.99410000
367.91	3.64140000	1.99770000
369.55	3.64970000	2.00370000
371.21	3.65950000	2.00950000
372.89	3.66940000	2.01520000
374.58	3.68150000	2.02240000
376.28	3.69330000	2.03130000
378.00	3.70550000	2.03880000
379.74	3.71780000	2.04690000
381.49	3.73300000	2.05460000
383.26	3.74850000	2.06230000
385.05	3.76590000	2.06940000
386.85	3.78350000	2.07780000
388.67	3.80380000	2.08610000
390.50	3.82550000	2.09580000
392.36	3.84920000	2.10440000
394.23	3.87590000	2.11260000
396.12	3.90440000	2.11820000
398.03	3.93460000	2.12570000
399.95	3.96960000	2.13070000
401.90	4.00640000	2.13410000
403.86	4.04610000	2.13590000
405.84	4.08880000	2.13510000
407.85	4.13330000	2.13180000
409.87	4.17930000	2.12340000
411.91	4.22460000	2.11010000
413.97	4.27000000	2.09140000
416.06	4.31290000	2.06880000
418.16	4.35320000	2.04400000
420.29	4.39060000	2.01540000
422.44	4.42620000	1.98720000
424.61	4.46010000	1.95870000
426.80	4.49170000	1.93120000
429.01	4.52370000	1.90470000
431.25	4.55670000	1.87850000
433.51	4.59180000	1.85460000
435.80	4.63010000	1.82900000
438.11	4.67350000	1.79890000
440.44	4.72100000	1.76470000
442.80	4.77040000	1.72220000
445.19	4.82130000	1.67090000
447.60	4.86920000	1.60810000
450.04	4.90950000	1.53840000
452.50	4.94040000	1.45950000
454.99	4.95960000	1.37690000
457.51	4.96670000	1.29470000
460.06	4.96270000	1.21590000
462.63	4.95220000	1.14040000
465.24	4.93450000	1.07300000
467.87	4.91200000	1.01020000
470.53	4.88610000	0.95218000
473.23	4.85830000	0.89990000
475.95	4.82950000	0.85273000
478.71	4.79910000	0.80786000
481.50	4.76750000	0.76636000
484.32	4.73440000	0.73043000
487.17	4.70210000	0.69683000
490.06	4.67100000	0.66560000
492.98	4.64110000	0.63635000
495.94	4.61120000	0.60932000
498.93	4.58240000	0.58471000
501.96	4.55470000	0.56212000
505.03	4.52770000	0.54035000
508.14	4.50090000	0.52095000
511.28	4.47440000	0.50242000
514.46	4.44900000	0.48582000
517.68	4.42460000	0.46922000
520.95	4.40050000	0.45496000
524.25	4.37890000	0.43897000
527.60	4.35640000	0.42484000
530.99	4.33550000	0.41181000
534.42	4.31520000	0.39914000
537.90	4.29560000	0.38726000
541.42	4.27640000	0.37709000
544.99	4.25790000	0.36644000
548.61	4.24020000	0.35736000
552.27	4.22260000	0.35025000
555.99	4.20480000	0.34394000
559.75	4.18800000	0.33559000
563.57	4.17110000	0.32867000
567.44	4.15510000	0.32191000
571.36	4.13920000	0.31545000
575.34	4.12430000	0.30811000
579.37	4.10920000	0.30238000
583.46	4.09480000	0.29575000
587.61	4.08060000	0.28854000
591.81	4.06680000	0.28324000
596.08	4.05370000	0.27620000
600.41	4.04070000	0.27036000
604.81	4.02840000	0.26472000
609.26	4.01560000	0.25888000
613.79	4.00320000	0.25388000
618.38	3.99110000	0.24914000
623.04	3.97880000	0.24585000
627.77	3.96690000	0.24178000
632.58	3.95590000	0.23698000
637.46	3.94560000	0.23388000
642.41	3.93590000	0.22979000
647.44	3.92630000	0.22650000
652.55	3.91640000	0.22240000
657.75	3.90710000	0.21816000
663.02	3.89810000	0.21636000
668.38	3.88940000	0.21273000
673.83	3.88100000	0.20959000
679.37	3.87250000	0.20466000
685.00	3.86500000	0.20160000
690.73	3.85770000	0.19810000
696.55	3.85120000	0.19501000
702.47	3.84410000	0.18861000
708.49	3.83680000	0.18611000
714.61	3.83080000	0.18289000
720.84	3.82420000	0.18017000
727.19	3.81880000	0.17832000
733.64	3.81340000	0.17564000
740.21	3.80700000	0.16938000
746.90	3.80140000	0.16865000
753.71	3.79650000	0.16507000
760.65	3.79170000	0.15849000
767.71	3.78540000	0.15252000
774.91	3.77730000	0.14661000
782.24	3.76970000	0.14281000
789.71	3.76100000	0.13958000
797.33	3.75280000	0.13781000
805.10	3.74500000	0.13238000
813.02	3.73820000	0.13196000
821.09	3.72950000	0.13622000
829.33	3.72290000	0.13817000
837.74	3.71850000	0.13916000
846.32	3.71220000	0.13877000
855.07	3.70730000	0.13494000
864.01	3.70180000	0.13308000
873.14	3.69800000	0.13159000
882.46	3.69510000	0.12721000
891.98	3.69210000	0.11479000
901.71	3.68820000	0.10887000
911.66	3.68320000	0.10606000
921.82	3.68330000	0.09898700
932.22	3.68430000	0.09149800
942.85	3.68430000	0.08750200
953.73	3.68070000	0.08691000
964.87	3.67720000	0.08636800
976.26	3.67360000	0.08586200
987.93	3.67010000	0.08539700
999.88	3.66660000	0.08496700
