; From SOPRA S.A. http://www.sopra-sa.com/indices.htm
; Filename    Symbol               Range (nm)     Description
; GAAS031T    GaAs                275      999    Gallium Arsenide (Temp: 31 C)
; lambda/nm       n         k
275.83	3.99760000	2.94940000
276.75	4.01870000	2.92140000
277.68	4.03160000	2.88960000
278.62	4.03520000	2.84960000
279.56	4.04750000	2.79350000
280.51	4.05300000	2.72910000
281.46	4.04780000	2.66190000
282.43	4.04190000	2.60860000
283.39	4.02710000	2.55310000
284.37	4.01090000	2.51190000
285.35	4.00170000	2.47530000
286.34	3.99360000	2.44040000
287.34	3.97760000	2.39580000
288.34	3.96800000	2.35030000
289.35	3.96110000	2.31360000
290.36	3.95440000	2.27160000
291.39	3.93850000	2.23340000
292.42	3.92040000	2.20850000
293.46	3.88840000	2.18600000
294.50	3.86140000	2.16760000
295.55	3.83680000	2.15130000
296.62	3.81140000	2.12790000
297.68	3.79020000	2.10420000
298.76	3.77410000	2.08280000
299.84	3.75270000	2.06440000
300.93	3.74490000	2.05120000
302.03	3.73160000	2.03210000
303.14	3.71640000	2.01530000
304.26	3.69760000	2.00980000
305.38	3.68320000	2.00590000
306.51	3.66680000	2.00140000
307.66	3.65290000	1.99830000
308.80	3.64180000	1.99390000
309.96	3.63300000	1.98780000
311.13	3.61970000	1.98140000
312.31	3.61560000	1.97540000
313.49	3.60640000	1.96480000
314.68	3.59870000	1.95830000
315.89	3.59090000	1.95260000
317.10	3.57910000	1.94990000
318.32	3.56690000	1.95340000
319.55	3.55800000	1.95630000
320.79	3.55020000	1.95820000
322.04	3.55030000	1.96200000
323.30	3.54690000	1.96310000
324.57	3.54260000	1.96230000
325.85	3.54210000	1.96260000
327.14	3.54170000	1.95690000
328.44	3.53890000	1.95650000
329.75	3.53240000	1.95040000
331.07	3.53780000	1.95820000
332.40	3.53170000	1.96790000
333.74	3.52530000	1.97600000
335.10	3.52000000	1.98140000
336.46	3.52020000	1.98470000
337.83	3.51790000	1.98650000
339.22	3.52810000	1.99310000
340.62	3.52800000	1.99030000
342.03	3.52790000	1.99050000
343.45	3.53190000	1.98710000
344.88	3.53550000	1.99450000
346.33	3.53520000	2.00450000
347.78	3.53920000	2.00940000
349.25	3.54370000	2.01500000
350.74	3.54910000	2.02230000
352.23	3.55370000	2.03240000
353.74	3.55900000	2.04160000
355.26	3.56640000	2.05140000
356.79	3.57300000	2.05960000
358.34	3.58270000	2.06820000
359.90	3.59190000	2.07740000
361.47	3.60370000	2.08660000
363.06	3.61680000	2.09760000
364.66	3.62880000	2.10920000
366.28	3.64240000	2.12300000
367.91	3.65720000	2.13660000
369.55	3.67180000	2.14940000
371.21	3.68670000	2.16290000
372.89	3.70310000	2.17640000
374.58	3.72280000	2.19090000
376.28	3.74300000	2.20650000
378.00	3.76630000	2.22290000
379.74	3.79230000	2.24190000
381.49	3.82040000	2.26170000
383.26	3.85530000	2.28550000
385.05	3.89800000	2.30870000
386.85	3.94850000	2.33250000
388.67	4.01020000	2.35060000
390.50	4.08010000	2.36130000
392.36	4.15710000	2.35870000
394.23	4.23440000	2.34050000
396.12	4.30790000	2.30870000
398.03	4.37180000	2.26500000
399.95	4.42430000	2.21640000
401.90	4.46380000	2.16870000
403.86	4.49280000	2.12380000
405.84	4.51530000	2.08600000
407.85	4.53390000	2.05530000
409.87	4.55090000	2.03500000
411.91	4.57090000	2.02570000
413.97	4.59980000	2.02610000
416.06	4.64930000	2.03140000
418.16	4.72020000	2.03250000
420.29	4.81380000	2.02090000
422.44	4.92190000	1.98200000
424.61	5.03260000	1.90850000
426.80	5.12980000	1.80030000
429.01	5.20050000	1.66540000
431.25	5.23160000	1.52060000
433.51	5.23000000	1.38530000
435.80	5.20780000	1.26310000
438.11	5.17410000	1.15690000
440.44	5.13280000	1.06860000
442.80	5.09050000	0.99374000
445.19	5.04650000	0.93045000
447.60	5.00190000	0.87401000
450.04	4.95930000	0.82303000
452.50	4.91800000	0.77714000
454.99	4.87380000	0.73886000
457.51	4.83340000	0.70310000
460.06	4.79380000	0.67069000
462.63	4.75610000	0.64134000
465.24	4.72030000	0.61523000
467.87	4.68740000	0.59074000
470.53	4.65580000	0.56897000
473.23	4.62460000	0.54787000
475.95	4.59580000	0.52700000
478.71	4.56660000	0.50867000
481.50	4.53780000	0.49088000
484.32	4.50880000	0.47451000
487.17	4.48100000	0.45965000
490.06	4.45480000	0.44509000
492.98	4.42950000	0.43260000
495.94	4.40460000	0.41960000
498.93	4.38060000	0.40758000
501.96	4.35710000	0.39668000
505.03	4.33450000	0.38542000
508.14	4.31230000	0.37483000
511.28	4.29100000	0.36460000
514.46	4.26970000	0.35556000
517.68	4.25060000	0.34720000
520.95	4.23120000	0.33879000
524.25	4.21230000	0.32926000
527.60	4.19410000	0.31890000
530.99	4.17670000	0.30866000
534.42	4.15970000	0.30107000
537.90	4.14250000	0.29427000
541.42	4.12580000	0.28817000
544.99	4.11000000	0.28371000
548.61	4.09540000	0.28017000
552.27	4.08110000	0.27701000
555.99	4.06660000	0.27407000
559.75	4.05260000	0.26975000
563.57	4.03990000	0.26383000
567.44	4.02730000	0.25888000
571.36	4.01510000	0.25389000
575.34	4.00280000	0.24878000
579.37	3.99130000	0.24396000
583.46	3.97920000	0.23926000
587.61	3.96760000	0.23401000
591.81	3.95560000	0.22931000
596.08	3.94410000	0.22601000
600.41	3.93310000	0.22071000
604.81	3.92280000	0.21508000
609.26	3.91250000	0.21077000
613.79	3.90280000	0.20549000
618.38	3.89340000	0.20196000
623.04	3.88440000	0.19885000
627.77	3.87450000	0.19740000
632.58	3.86560000	0.19488000
637.46	3.85690000	0.19394000
642.41	3.84870000	0.19386000
647.44	3.84090000	0.19199000
652.55	3.83350000	0.18686000
657.75	3.82580000	0.18200000
663.02	3.81860000	0.17683000
668.38	3.81230000	0.17241000
673.83	3.80600000	0.16604000
679.37	3.80030000	0.16203000
685.00	3.79440000	0.15826000
690.73	3.78920000	0.15607000
696.55	3.78340000	0.15367000
702.47	3.77780000	0.14989000
708.49	3.77100000	0.14294000
714.61	3.76210000	0.13622000
720.84	3.75320000	0.12943000
727.19	3.74460000	0.12153000
733.64	3.73720000	0.11697000
740.21	3.73850000	0.12367000
746.90	3.72150000	0.11967000
753.71	3.70640000	0.11056000
760.65	3.69500000	0.09929200
767.71	3.68700000	0.08662900
774.91	3.68200000	0.07807600
782.24	3.67970000	0.07527600
789.71	3.67810000	0.07445700
797.33	3.67830000	0.07879700
805.10	3.67880000	0.09448000
813.02	3.67070000	0.08919900
821.09	3.66080000	0.07247800
829.33	3.65910000	0.06601200
837.74	3.65780000	0.05537900
846.32	3.65750000	0.04971500
855.07	3.66190000	0.03376700
864.01	3.66110000	0.03024700
873.14	3.65380000	0.03306700
882.46	3.64120000	0.04304200
891.98	3.62450000	0.05798000
901.71	3.60960000	0.05571800
911.66	3.58770000	0.07575300
921.82	3.57220000	0.10509000
932.22	3.55710000	0.12557000
942.85	3.54820000	0.14431000
953.73	3.54290000	0.14177000
964.87	3.53760000	0.13927000
976.26	3.53250000	0.13683000
987.93	3.52750000	0.13444000
999.88	3.52270000	0.13210000
