; From SOPRA S.A. http://www.sopra-sa.com/indices.htm
; Filename    Symbol               Range (nm)     Description
; GAAS488T    GaAs                275      999    Gallium Arsenide (Temp: 488 C)
; lambda/nm       n         k
275.83	3.45470000	3.25240000
276.75	3.48630000	3.22100000
277.68	3.51850000	3.19040000
278.62	3.54790000	3.14800000
279.56	3.57620000	3.12170000
280.51	3.60320000	3.09150000
281.46	3.62280000	3.05980000
282.43	3.64620000	3.01780000
283.39	3.67040000	2.98100000
284.37	3.69220000	2.93370000
285.35	3.70400000	2.89390000
286.34	3.72330000	2.85920000
287.34	3.73250000	2.81930000
288.34	3.74480000	2.77810000
289.35	3.75500000	2.74320000
290.36	3.76110000	2.70490000
291.39	3.77210000	2.66280000
292.42	3.78240000	2.62420000
293.46	3.78890000	2.59180000
294.50	3.79200000	2.56070000
295.55	3.78650000	2.52730000
296.62	3.78600000	2.49820000
297.68	3.77920000	2.47050000
298.76	3.77660000	2.44180000
299.84	3.77220000	2.41480000
300.93	3.76500000	2.38530000
302.03	3.76470000	2.35760000
303.14	3.75840000	2.33300000
304.26	3.75370000	2.31160000
305.38	3.75060000	2.29220000
306.51	3.74340000	2.27000000
307.66	3.73770000	2.24800000
308.80	3.73190000	2.22960000
309.96	3.72780000	2.20910000
311.13	3.72430000	2.18710000
312.31	3.71480000	2.16730000
313.49	3.70900000	2.14990000
314.68	3.70140000	2.13200000
315.89	3.69730000	2.11950000
317.10	3.69480000	2.10740000
318.32	3.68800000	2.09770000
319.55	3.68100000	2.08750000
320.79	3.67610000	2.07890000
322.04	3.67230000	2.06790000
323.30	3.66790000	2.05570000
324.57	3.66000000	2.04850000
325.85	3.65610000	2.03970000
327.14	3.65190000	2.03210000
328.44	3.64690000	2.02920000
329.75	3.64330000	2.02430000
331.07	3.63630000	2.02230000
332.40	3.63270000	2.01780000
333.74	3.63050000	2.01300000
335.10	3.62790000	2.00630000
336.46	3.62540000	1.99790000
337.83	3.62270000	1.98970000
339.22	3.62170000	1.98260000
340.62	3.62070000	1.97630000
342.03	3.61960000	1.97160000
343.45	3.62050000	1.96620000
344.88	3.62090000	1.96340000
346.33	3.62140000	1.96140000
347.78	3.62220000	1.96040000
349.25	3.62200000	1.95840000
350.74	3.62220000	1.95710000
352.23	3.62260000	1.95720000
353.74	3.62510000	1.95800000
355.26	3.62730000	1.95750000
356.79	3.63040000	1.95760000
358.34	3.63400000	1.95710000
359.90	3.63740000	1.95810000
361.47	3.64110000	1.95880000
363.06	3.64500000	1.96040000
364.66	3.64900000	1.96090000
366.28	3.65420000	1.96270000
367.91	3.66010000	1.96450000
369.55	3.66670000	1.96700000
371.21	3.67380000	1.96820000
372.89	3.68200000	1.97000000
374.58	3.68970000	1.97260000
376.28	3.69800000	1.97600000
378.00	3.70590000	1.97940000
379.74	3.71500000	1.98210000
381.49	3.72540000	1.98330000
383.26	3.73670000	1.98540000
385.05	3.74850000	1.98800000
386.85	3.76170000	1.99090000
388.67	3.77660000	1.99320000
390.50	3.79180000	1.99570000
392.36	3.80730000	1.99950000
394.23	3.82370000	2.00340000
396.12	3.84060000	2.00640000
398.03	3.85970000	2.00900000
399.95	3.87940000	2.01160000
401.90	3.90030000	2.01390000
403.86	3.92280000	2.01700000
405.84	3.94770000	2.01860000
407.85	3.97350000	2.02050000
409.87	4.00080000	2.01990000
411.91	4.02930000	2.01920000
413.97	4.05840000	2.01790000
416.06	4.09030000	2.01350000
418.16	4.12320000	2.00780000
420.29	4.15670000	2.00010000
422.44	4.19120000	1.99010000
424.61	4.22600000	1.97780000
426.80	4.26080000	1.96230000
429.01	4.29540000	1.94450000
431.25	4.32890000	1.92230000
433.51	4.36210000	1.90030000
435.80	4.39430000	1.87690000
438.11	4.42640000	1.85060000
440.44	4.45670000	1.82520000
442.80	4.48660000	1.79900000
445.19	4.51560000	1.77300000
447.60	4.54530000	1.74550000
450.04	4.57400000	1.71580000
452.50	4.60420000	1.68520000
454.99	4.63410000	1.65110000
457.51	4.66720000	1.61440000
460.06	4.69860000	1.57380000
462.63	4.72910000	1.52920000
465.24	4.75620000	1.48100000
467.87	4.78070000	1.42840000
470.53	4.79990000	1.37290000
473.23	4.81380000	1.31440000
475.95	4.82100000	1.25400000
478.71	4.82190000	1.19440000
481.50	4.81790000	1.13410000
484.32	4.80940000	1.07460000
487.17	4.79590000	1.01820000
490.06	4.77870000	0.96529000
492.98	4.75820000	0.91452000
495.94	4.73570000	0.86806000
498.93	4.71210000	0.82545000
501.96	4.68780000	0.78723000
505.03	4.66290000	0.75186000
508.14	4.63780000	0.71969000
511.28	4.61380000	0.68890000
514.46	4.58880000	0.65982000
517.68	4.56480000	0.63267000
520.95	4.54020000	0.60872000
524.25	4.51590000	0.58507000
527.60	4.49200000	0.56476000
530.99	4.46910000	0.54621000
534.42	4.44680000	0.52853000
537.90	4.42540000	0.51261000
541.42	4.40470000	0.49778000
544.99	4.38520000	0.48200000
548.61	4.36560000	0.46632000
552.27	4.34730000	0.45159000
555.99	4.32910000	0.43865000
559.75	4.31170000	0.42567000
563.57	4.29400000	0.41428000
567.44	4.27650000	0.40591000
571.36	4.25940000	0.39682000
575.34	4.24310000	0.38919000
579.37	4.22650000	0.38124000
583.46	4.21060000	0.37182000
587.61	4.19460000	0.36152000
591.81	4.17910000	0.35260000
596.08	4.16400000	0.34366000
600.41	4.15000000	0.33415000
604.81	4.13570000	0.32469000
609.26	4.12180000	0.31817000
613.79	4.10820000	0.30948000
618.38	4.09500000	0.30545000
623.04	4.08210000	0.29924000
627.77	4.06970000	0.29351000
632.58	4.05790000	0.28543000
637.46	4.04560000	0.28218000
642.41	4.03400000	0.27732000
647.44	4.02230000	0.27172000
652.55	4.01060000	0.26482000
657.75	3.99950000	0.26141000
663.02	3.98830000	0.25836000
668.38	3.97820000	0.25566000
673.83	3.96900000	0.25129000
679.37	3.95980000	0.24676000
685.00	3.95180000	0.23988000
690.73	3.94380000	0.23750000
696.55	3.93610000	0.23487000
702.47	3.92750000	0.22865000
708.49	3.91850000	0.22328000
714.61	3.91010000	0.22025000
720.84	3.90150000	0.21764000
727.19	3.89220000	0.21802000
733.64	3.88360000	0.21769000
740.21	3.87520000	0.21494000
746.90	3.86860000	0.20854000
753.71	3.86170000	0.20445000
760.65	3.85520000	0.20003000
767.71	3.84840000	0.19173000
774.91	3.84330000	0.18789000
782.24	3.83820000	0.18411000
789.71	3.83190000	0.18378000
797.33	3.82410000	0.18711000
805.10	3.81770000	0.18400000
813.02	3.81070000	0.17861000
821.09	3.80120000	0.17088000
829.33	3.79260000	0.16367000
837.74	3.78490000	0.16076000
846.32	3.77730000	0.15594000
855.07	3.77170000	0.15637000
864.01	3.76400000	0.15742000
873.14	3.75650000	0.15617000
882.46	3.75020000	0.15373000
891.98	3.74540000	0.14989000
901.71	3.73920000	0.14438000
911.66	3.73320000	0.13457000
921.82	3.72990000	0.13152000
932.22	3.72550000	0.13377000
942.85	3.72150000	0.13456000
953.73	3.71650000	0.13224000
964.87	3.71170000	0.12997000
976.26	3.70690000	0.12772000
987.93	3.70220000	0.12551000
999.88	3.69760000	0.12334000
