; From SOPRA S.A. http://www.sopra-sa.com/indices.htm
; Filename    Symbol               Range (nm)     Description
; GAAS060T    GaAs                275      999    Gallium Arsenide (Temp: 60 C)
; lambda/nm       n         k
275.83	3.93890000	3.00710000
276.75	3.97360000	2.95840000
277.68	3.99960000	2.92420000
278.62	4.01020000	2.88540000
279.56	4.02860000	2.83120000
280.51	4.04520000	2.77280000
281.46	4.03800000	2.71300000
282.43	4.01950000	2.65100000
283.39	4.01590000	2.59700000
284.37	4.00330000	2.55020000
285.35	3.98860000	2.49980000
286.34	3.97650000	2.45780000
287.34	3.96530000	2.41900000
288.34	3.94660000	2.37570000
289.35	3.93410000	2.33810000
290.36	3.92510000	2.29910000
291.39	3.90800000	2.26800000
292.42	3.89730000	2.24580000
293.46	3.88330000	2.22080000
294.50	3.86580000	2.20400000
295.55	3.84470000	2.18130000
296.62	3.82090000	2.16140000
297.68	3.80090000	2.13130000
298.76	3.77640000	2.10960000
299.84	3.75930000	2.09300000
300.93	3.74260000	2.07770000
302.03	3.72840000	2.06570000
303.14	3.71430000	2.05690000
304.26	3.70000000	2.04870000
305.38	3.68860000	2.04170000
306.51	3.67370000	2.02940000
307.66	3.66370000	2.02070000
308.80	3.65560000	2.00610000
309.96	3.64460000	1.99880000
311.13	3.63280000	1.99210000
312.31	3.62110000	1.98810000
313.49	3.60960000	1.98150000
314.68	3.59800000	1.97870000
315.89	3.58930000	1.97610000
317.10	3.58080000	1.97730000
318.32	3.57160000	1.97570000
319.55	3.56540000	1.97330000
320.79	3.55920000	1.97380000
322.04	3.55260000	1.97990000
323.30	3.54400000	1.98020000
324.57	3.54110000	1.98430000
325.85	3.53550000	1.98200000
327.14	3.53180000	1.98160000
328.44	3.53150000	1.98000000
329.75	3.52970000	1.98290000
331.07	3.52070000	1.98340000
332.40	3.51920000	1.98500000
333.74	3.51300000	1.98550000
335.10	3.50920000	1.98720000
336.46	3.50640000	1.98210000
337.83	3.50970000	1.98080000
339.22	3.51190000	1.97950000
340.62	3.51770000	1.97980000
342.03	3.52530000	1.98190000
343.45	3.52920000	1.98900000
344.88	3.52890000	1.99870000
346.33	3.53630000	2.00750000
347.78	3.53690000	2.01310000
349.25	3.54210000	2.01980000
350.74	3.54660000	2.02610000
352.23	3.55240000	2.03170000
353.74	3.55810000	2.03820000
355.26	3.56510000	2.04450000
356.79	3.57110000	2.05100000
358.34	3.57780000	2.05970000
359.90	3.58560000	2.06950000
361.47	3.59430000	2.08030000
363.06	3.60500000	2.09260000
364.66	3.61710000	2.10350000
366.28	3.63010000	2.11500000
367.91	3.64410000	2.12560000
369.55	3.65870000	2.13760000
371.21	3.67410000	2.14930000
372.89	3.68960000	2.16090000
374.58	3.70790000	2.17460000
376.28	3.72840000	2.19010000
378.00	3.74970000	2.20600000
379.74	3.77550000	2.22270000
381.49	3.80350000	2.23950000
383.26	3.83580000	2.25780000
385.05	3.87250000	2.27740000
386.85	3.91520000	2.29810000
388.67	3.96650000	2.31590000
390.50	4.02550000	2.32970000
392.36	4.09160000	2.33710000
394.23	4.16170000	2.33350000
396.12	4.23220000	2.31600000
398.03	4.30000000	2.28730000
399.95	4.35930000	2.24790000
401.90	4.40810000	2.20340000
403.86	4.44730000	2.15840000
405.84	4.47780000	2.11450000
407.85	4.50450000	2.07660000
409.87	4.52670000	2.04640000
411.91	4.54640000	2.02420000
413.97	4.56900000	2.01140000
416.06	4.60280000	2.00640000
418.16	4.64980000	2.00770000
420.29	4.71760000	2.00520000
422.44	4.80340000	1.98950000
424.61	4.90230000	1.95010000
426.80	5.00510000	1.87980000
429.01	5.09650000	1.77790000
431.25	5.16220000	1.65160000
433.51	5.19490000	1.51570000
435.80	5.19820000	1.38500000
438.11	5.17980000	1.26650000
440.44	5.14950000	1.16350000
442.80	5.11140000	1.08040000
445.19	5.07170000	1.00680000
447.60	5.03070000	0.94224000
450.04	4.99060000	0.88490000
452.50	4.94860000	0.83205000
454.99	4.90730000	0.78749000
457.51	4.86740000	0.74561000
460.06	4.82770000	0.70911000
462.63	4.78830000	0.67730000
465.24	4.75280000	0.64643000
467.87	4.71660000	0.62493000
470.53	4.68200000	0.60022000
473.23	4.64960000	0.57679000
475.95	4.61870000	0.55550000
478.71	4.58790000	0.53587000
481.50	4.55900000	0.51749000
484.32	4.53140000	0.49773000
487.17	4.50400000	0.48127000
490.06	4.47670000	0.46593000
492.98	4.45170000	0.44847000
495.94	4.42550000	0.43582000
498.93	4.39990000	0.42242000
501.96	4.37610000	0.40894000
505.03	4.35300000	0.39546000
508.14	4.33070000	0.38313000
511.28	4.30960000	0.37126000
514.46	4.28880000	0.36115000
517.68	4.26820000	0.35345000
520.95	4.24830000	0.34461000
524.25	4.22930000	0.33471000
527.60	4.21050000	0.32874000
530.99	4.19220000	0.32167000
534.42	4.17440000	0.31317000
537.90	4.15710000	0.30544000
541.42	4.14040000	0.29886000
544.99	4.12390000	0.29300000
548.61	4.10790000	0.28787000
552.27	4.09270000	0.28442000
555.99	4.07840000	0.27915000
559.75	4.06470000	0.27368000
563.57	4.05160000	0.26973000
567.44	4.03850000	0.26471000
571.36	4.02550000	0.26004000
575.34	4.01270000	0.25626000
579.37	4.00050000	0.25076000
583.46	3.98860000	0.24600000
587.61	3.97650000	0.24131000
591.81	3.96480000	0.23732000
596.08	3.95350000	0.23270000
600.41	3.94260000	0.22760000
604.81	3.93140000	0.22338000
609.26	3.92060000	0.21925000
613.79	3.91050000	0.21448000
618.38	3.90070000	0.21100000
623.04	3.89120000	0.20738000
627.77	3.88160000	0.20493000
632.58	3.87210000	0.20233000
637.46	3.86330000	0.19939000
642.41	3.85410000	0.19658000
647.44	3.84570000	0.19360000
652.55	3.83790000	0.19038000
657.75	3.83040000	0.19023000
663.02	3.82400000	0.18609000
668.38	3.81720000	0.18606000
673.83	3.81070000	0.18255000
679.37	3.80440000	0.17939000
685.00	3.79870000	0.17516000
690.73	3.79380000	0.16873000
696.55	3.78770000	0.16215000
702.47	3.78200000	0.15413000
708.49	3.77610000	0.14938000
714.61	3.76870000	0.14339000
720.84	3.76090000	0.13470000
727.19	3.75260000	0.13275000
733.64	3.74400000	0.12928000
740.21	3.73580000	0.12713000
746.90	3.72660000	0.12120000
753.71	3.71980000	0.12043000
760.65	3.71250000	0.12081000
767.71	3.70620000	0.12097000
774.91	3.69880000	0.11881000
782.24	3.69390000	0.11490000
789.71	3.68820000	0.11133000
797.33	3.68230000	0.11157000
805.10	3.67690000	0.10931000
813.02	3.68000000	0.11381000
821.09	3.66970000	0.09338800
829.33	3.66260000	0.08107600
837.74	3.65980000	0.06760900
846.32	3.66010000	0.05850100
855.07	3.66380000	0.04555200
864.01	3.66550000	0.03966400
873.14	3.66320000	0.03924300
882.46	3.65330000	0.04892300
891.98	3.64030000	0.06368200
901.71	3.62600000	0.08797100
911.66	3.60550000	0.09157000
921.82	3.58610000	0.10576000
932.22	3.56890000	0.11953000
942.85	3.55540000	0.13268000
953.73	3.55020000	0.13008000
964.87	3.54510000	0.12753000
976.26	3.53760000	0.12683000
987.93	3.53530000	0.12259000
999.88	3.53060000	0.12020000
