; From SOPRA S.A. http://www.sopra-sa.com/indices.htm
; Filename    Symbol               Range (nm)     Description
; GAAS344T    GaAs                275      999    Gallium Arsenide (Temp: 344 C)
; lambda/nm       n         k
275.83	3.59880000	3.21060000
276.75	3.64110000	3.17070000
277.68	3.68730000	3.12990000
278.62	3.70690000	3.08580000
279.56	3.72640000	3.04670000
280.51	3.76460000	3.00580000
281.46	3.78310000	2.97120000
282.43	3.80170000	2.93920000
283.39	3.81610000	2.89640000
284.37	3.82230000	2.85620000
285.35	3.82470000	2.81260000
286.34	3.82730000	2.77530000
287.34	3.82420000	2.73160000
288.34	3.82350000	2.68370000
289.35	3.82550000	2.63860000
290.36	3.83070000	2.59500000
291.39	3.83080000	2.55580000
292.42	3.83290000	2.51780000
293.46	3.82640000	2.47970000
294.50	3.82450000	2.44370000
295.55	3.82430000	2.41720000
296.62	3.81970000	2.39640000
297.68	3.81030000	2.37240000
298.76	3.80480000	2.34220000
299.84	3.79650000	2.31730000
300.93	3.78850000	2.29090000
302.03	3.77540000	2.26580000
303.14	3.75960000	2.24260000
304.26	3.74820000	2.22260000
305.38	3.73720000	2.20080000
306.51	3.72820000	2.18720000
307.66	3.71880000	2.17220000
308.80	3.70770000	2.15950000
309.96	3.69890000	2.14230000
311.13	3.69010000	2.12860000
312.31	3.68260000	2.11380000
313.49	3.67210000	2.10060000
314.68	3.66320000	2.09050000
315.89	3.65520000	2.08070000
317.10	3.64410000	2.06790000
318.32	3.63430000	2.06150000
319.55	3.63120000	2.05420000
320.79	3.62370000	2.04450000
322.04	3.62210000	2.03290000
323.30	3.61880000	2.02550000
324.57	3.61120000	2.01700000
325.85	3.60210000	2.01160000
327.14	3.59240000	2.00680000
328.44	3.58650000	2.00420000
329.75	3.58350000	2.00360000
331.07	3.58100000	2.00350000
332.40	3.58260000	2.00370000
333.74	3.57900000	2.00330000
335.10	3.57970000	2.00020000
336.46	3.57930000	1.99720000
337.83	3.57610000	1.99090000
339.22	3.57390000	1.98330000
340.62	3.57280000	1.97550000
342.03	3.57640000	1.97150000
343.45	3.57850000	1.96710000
344.88	3.58060000	1.96290000
346.33	3.58140000	1.96340000
347.78	3.58120000	1.96620000
349.25	3.58270000	1.96760000
350.74	3.58510000	1.96830000
352.23	3.58750000	1.97100000
353.74	3.58980000	1.97350000
355.26	3.59260000	1.97590000
356.79	3.59470000	1.97980000
358.34	3.59780000	1.98150000
359.90	3.60190000	1.98430000
361.47	3.60670000	1.98860000
363.06	3.61170000	1.99350000
364.66	3.61890000	1.99800000
366.28	3.62660000	2.00060000
367.91	3.63480000	2.00430000
369.55	3.64370000	2.00840000
371.21	3.65200000	2.01390000
372.89	3.66120000	2.01910000
374.58	3.67060000	2.02360000
376.28	3.68140000	2.02940000
378.00	3.69150000	2.03590000
379.74	3.70310000	2.04330000
381.49	3.71780000	2.04980000
383.26	3.73270000	2.05550000
385.05	3.74940000	2.06140000
386.85	3.76740000	2.06740000
388.67	3.78520000	2.07520000
390.50	3.80580000	2.08110000
392.36	3.82670000	2.08840000
394.23	3.85000000	2.09430000
396.12	3.87340000	2.10170000
398.03	3.90040000	2.10860000
399.95	3.92950000	2.11410000
401.90	3.96090000	2.11850000
403.86	3.99540000	2.12110000
405.84	4.03240000	2.12180000
407.85	4.07130000	2.12130000
409.87	4.11310000	2.11730000
411.91	4.15470000	2.11120000
413.97	4.19850000	2.10030000
416.06	4.24190000	2.08520000
418.16	4.28380000	2.06670000
420.29	4.32330000	2.04470000
422.44	4.36170000	2.01910000
424.61	4.39720000	1.99170000
426.80	4.43100000	1.96370000
429.01	4.46340000	1.93590000
431.25	4.49580000	1.90860000
433.51	4.52770000	1.88280000
435.80	4.56210000	1.85600000
438.11	4.59930000	1.82780000
440.44	4.63870000	1.79990000
442.80	4.68110000	1.76880000
445.19	4.72640000	1.73100000
447.60	4.77240000	1.68680000
450.04	4.81700000	1.63520000
452.50	4.85770000	1.57500000
454.99	4.89130000	1.50710000
457.51	4.91660000	1.43360000
460.06	4.93150000	1.35700000
462.63	4.93770000	1.27970000
465.24	4.93510000	1.20690000
467.87	4.92450000	1.13830000
470.53	4.90850000	1.07250000
473.23	4.88700000	1.01190000
475.95	4.86180000	0.95675000
478.71	4.83520000	0.90479000
481.50	4.80610000	0.85597000
484.32	4.77700000	0.81003000
487.17	4.74670000	0.76890000
490.06	4.71660000	0.73075000
492.98	4.68730000	0.69791000
495.94	4.65650000	0.66822000
498.93	4.62680000	0.63919000
501.96	4.59800000	0.61276000
505.03	4.56930000	0.58801000
508.14	4.54170000	0.56480000
511.28	4.51530000	0.54232000
514.46	4.49020000	0.52142000
517.68	4.46520000	0.50341000
520.95	4.44100000	0.48470000
524.25	4.41830000	0.46737000
527.60	4.39490000	0.45196000
530.99	4.37320000	0.43789000
534.42	4.35200000	0.42477000
537.90	4.33100000	0.41307000
541.42	4.31080000	0.40284000
544.99	4.29120000	0.39286000
548.61	4.27240000	0.38295000
552.27	4.25390000	0.37367000
555.99	4.23620000	0.36362000
559.75	4.21910000	0.35369000
563.57	4.20230000	0.34497000
567.44	4.18640000	0.33714000
571.36	4.17030000	0.32973000
575.34	4.15530000	0.32259000
579.37	4.14010000	0.31651000
583.46	4.12510000	0.31115000
587.61	4.11010000	0.30582000
591.81	4.09550000	0.29958000
596.08	4.08130000	0.29354000
600.41	4.06700000	0.28678000
604.81	4.05320000	0.28164000
609.26	4.04030000	0.27569000
613.79	4.02730000	0.26980000
618.38	4.01530000	0.26352000
623.04	4.00310000	0.25803000
627.77	3.99100000	0.25386000
632.58	3.97850000	0.24903000
637.46	3.96700000	0.24515000
642.41	3.95620000	0.24246000
647.44	3.94570000	0.23955000
652.55	3.93550000	0.23609000
657.75	3.92610000	0.23290000
663.02	3.91690000	0.22964000
668.38	3.90780000	0.22498000
673.83	3.89920000	0.21974000
679.37	3.89110000	0.21486000
685.00	3.88280000	0.20971000
690.73	3.87560000	0.20712000
696.55	3.86760000	0.20456000
702.47	3.85970000	0.20162000
708.49	3.85210000	0.19850000
714.61	3.84460000	0.19592000
720.84	3.83780000	0.19426000
727.19	3.83050000	0.19084000
733.64	3.82450000	0.18964000
740.21	3.81910000	0.18350000
746.90	3.81370000	0.18160000
753.71	3.80850000	0.18106000
760.65	3.80300000	0.17424000
767.71	3.79740000	0.16967000
774.91	3.79170000	0.16298000
782.24	3.78500000	0.15615000
789.71	3.77770000	0.15228000
797.33	3.76960000	0.14687000
805.10	3.76070000	0.14117000
813.02	3.75330000	0.13969000
821.09	3.74880000	0.14254000
829.33	3.74150000	0.13617000
837.74	3.73590000	0.12790000
846.32	3.72980000	0.12386000
855.07	3.72480000	0.12077000
864.01	3.71930000	0.11915000
873.14	3.71370000	0.11878000
882.46	3.70800000	0.11536000
891.98	3.70290000	0.11328000
901.71	3.69830000	0.11972000
911.66	3.69530000	0.13168000
921.82	3.69420000	0.11813000
932.22	3.69300000	0.10986000
942.85	3.69600000	0.10768000
953.73	3.69160000	0.10688000
964.87	3.68730000	0.10612000
976.26	3.68310000	0.10540000
987.93	3.67890000	0.10471000
999.88	3.67480000	0.10403000
