; From SOPRA S.A. http://www.sopra-sa.com/indices.htm
; Filename    Symbol               Range (nm)     Description
; GAAS515T    GaAs                275      999    Gallium Arsenide (Temp: 515 C)
; lambda/nm       n         k
275.83	3.40700000	3.29820000
276.75	3.43690000	3.26570000
277.68	3.46680000	3.22190000
278.62	3.50150000	3.18020000
279.56	3.52590000	3.14570000
280.51	3.55890000	3.10240000
281.46	3.59320000	3.06760000
282.43	3.63010000	3.02710000
283.39	3.66300000	2.98840000
284.37	3.68980000	2.95570000
285.35	3.70510000	2.92130000
286.34	3.71270000	2.88500000
287.34	3.72280000	2.84270000
288.34	3.72860000	2.80140000
289.35	3.73070000	2.76420000
290.36	3.73690000	2.72140000
291.39	3.74360000	2.68290000
292.42	3.75340000	2.64510000
293.46	3.75920000	2.61260000
294.50	3.76520000	2.58590000
295.55	3.76760000	2.55620000
296.62	3.76760000	2.52260000
297.68	3.76700000	2.49010000
298.76	3.76250000	2.46270000
299.84	3.75830000	2.43550000
300.93	3.75740000	2.41020000
302.03	3.75550000	2.38460000
303.14	3.75400000	2.35660000
304.26	3.74820000	2.33200000
305.38	3.74490000	2.30890000
306.51	3.74130000	2.28450000
307.66	3.73710000	2.26250000
308.80	3.73340000	2.24250000
309.96	3.72700000	2.22510000
311.13	3.71750000	2.20800000
312.31	3.71130000	2.19150000
313.49	3.70340000	2.17580000
314.68	3.69610000	2.16040000
315.89	3.68770000	2.14410000
317.10	3.68300000	2.12620000
318.32	3.67760000	2.11250000
319.55	3.67570000	2.10240000
320.79	3.67050000	2.08980000
322.04	3.66250000	2.07600000
323.30	3.65230000	2.06680000
324.57	3.64470000	2.05600000
325.85	3.63930000	2.04610000
327.14	3.63770000	2.03610000
328.44	3.63430000	2.02930000
329.75	3.63300000	2.02280000
331.07	3.63190000	2.02010000
332.40	3.63300000	2.01660000
333.74	3.63130000	2.01100000
335.10	3.63030000	2.00530000
336.46	3.62770000	1.99960000
337.83	3.62530000	1.99140000
339.22	3.62600000	1.98350000
340.62	3.62560000	1.97810000
342.03	3.62350000	1.97650000
343.45	3.62280000	1.97290000
344.88	3.62220000	1.96990000
346.33	3.62160000	1.96720000
347.78	3.62070000	1.96430000
349.25	3.62120000	1.96360000
350.74	3.62170000	1.96110000
352.23	3.62360000	1.95950000
353.74	3.62580000	1.95940000
355.26	3.62750000	1.95900000
356.79	3.62980000	1.95800000
358.34	3.63410000	1.95700000
359.90	3.63740000	1.95640000
361.47	3.64130000	1.95780000
363.06	3.64460000	1.95780000
364.66	3.64930000	1.95880000
366.28	3.65450000	1.95930000
367.91	3.66060000	1.96080000
369.55	3.66650000	1.96310000
371.21	3.67350000	1.96480000
372.89	3.68120000	1.96640000
374.58	3.68970000	1.96980000
376.28	3.69750000	1.97320000
378.00	3.70500000	1.97690000
379.74	3.71300000	1.97930000
381.49	3.72240000	1.98190000
383.26	3.73330000	1.98360000
385.05	3.74350000	1.98670000
386.85	3.75520000	1.98870000
388.67	3.76770000	1.99080000
390.50	3.78210000	1.99220000
392.36	3.79750000	1.99500000
394.23	3.81340000	1.99800000
396.12	3.83000000	1.99980000
398.03	3.84810000	2.00260000
399.95	3.86780000	2.00500000
401.90	3.88830000	2.00750000
403.86	3.91030000	2.00990000
405.84	3.93360000	2.01100000
407.85	3.95740000	2.01220000
409.87	3.98300000	2.01120000
411.91	4.00870000	2.01000000
413.97	4.03600000	2.00750000
416.06	4.06490000	2.00310000
418.16	4.09490000	1.99920000
420.29	4.12630000	1.99230000
422.44	4.15860000	1.98410000
424.61	4.19240000	1.97200000
426.80	4.22640000	1.95990000
429.01	4.26180000	1.94430000
431.25	4.29700000	1.92550000
433.51	4.33040000	1.90610000
435.80	4.36280000	1.88460000
438.11	4.39520000	1.86120000
440.44	4.42610000	1.83720000
442.80	4.45520000	1.81130000
445.19	4.48390000	1.78520000
447.60	4.51180000	1.75980000
450.04	4.54040000	1.73350000
452.50	4.57090000	1.70340000
454.99	4.60040000	1.67190000
457.51	4.63010000	1.63830000
460.06	4.65940000	1.60240000
462.63	4.68930000	1.56220000
465.24	4.71750000	1.51920000
467.87	4.74360000	1.47290000
470.53	4.76760000	1.42280000
473.23	4.78630000	1.37020000
475.95	4.80100000	1.31300000
478.71	4.80950000	1.25500000
481.50	4.81110000	1.19580000
484.32	4.80690000	1.13730000
487.17	4.79880000	1.07950000
490.06	4.78640000	1.02360000
492.98	4.77140000	0.97077000
495.94	4.75240000	0.92028000
498.93	4.73140000	0.87412000
501.96	4.70790000	0.83178000
505.03	4.68410000	0.79228000
508.14	4.65930000	0.75777000
511.28	4.63440000	0.72524000
514.46	4.60900000	0.69574000
517.68	4.58520000	0.66668000
520.95	4.56120000	0.64038000
524.25	4.53870000	0.61490000
527.60	4.51500000	0.59173000
530.99	4.49250000	0.57048000
534.42	4.47000000	0.55037000
537.90	4.44870000	0.52983000
541.42	4.42690000	0.51322000
544.99	4.40690000	0.49734000
548.61	4.38640000	0.48435000
552.27	4.36720000	0.47111000
555.99	4.34830000	0.45823000
559.75	4.33020000	0.44608000
563.57	4.31160000	0.43398000
567.44	4.29460000	0.42146000
571.36	4.27770000	0.41002000
575.34	4.26150000	0.39822000
579.37	4.24450000	0.39014000
583.46	4.22950000	0.37975000
587.61	4.21360000	0.37176000
591.81	4.19760000	0.36307000
596.08	4.18190000	0.35507000
600.41	4.16660000	0.34679000
604.81	4.15190000	0.33703000
609.26	4.13800000	0.32817000
613.79	4.12380000	0.32101000
618.38	4.10950000	0.31424000
623.04	4.09570000	0.30878000
627.77	4.08270000	0.30252000
632.58	4.07050000	0.29786000
637.46	4.05750000	0.29336000
642.41	4.04590000	0.28839000
647.44	4.03420000	0.28175000
652.55	4.02330000	0.27737000
657.75	4.01320000	0.27100000
663.02	4.00270000	0.26640000
668.38	3.99330000	0.26309000
673.83	3.98420000	0.26040000
679.37	3.97410000	0.25650000
685.00	3.96480000	0.25134000
690.73	3.95460000	0.24696000
696.55	3.94530000	0.24207000
702.47	3.93460000	0.23838000
708.49	3.92510000	0.23558000
714.61	3.91690000	0.23384000
720.84	3.90810000	0.22801000
727.19	3.90130000	0.22222000
733.64	3.89440000	0.21690000
740.21	3.88730000	0.21005000
746.90	3.88070000	0.20637000
753.71	3.87280000	0.20792000
760.65	3.86560000	0.20331000
767.71	3.85780000	0.20298000
774.91	3.85030000	0.20029000
782.24	3.84390000	0.19879000
789.71	3.83690000	0.19082000
797.33	3.83100000	0.18509000
805.10	3.82460000	0.17834000
813.02	3.81970000	0.17863000
821.09	3.81150000	0.17456000
829.33	3.80270000	0.17397000
837.74	3.79490000	0.17040000
846.32	3.78640000	0.17207000
855.07	3.77890000	0.16650000
864.01	3.77260000	0.16195000
873.14	3.76640000	0.15775000
882.46	3.76050000	0.15734000
891.98	3.75570000	0.15262000
901.71	3.74970000	0.15466000
911.66	3.74300000	0.14542000
921.82	3.73730000	0.14711000
932.22	3.73030000	0.14862000
942.85	3.72380000	0.15020000
953.73	3.71850000	0.14754000
964.87	3.71330000	0.14491000
976.26	3.70820000	0.14230000
987.93	3.70320000	0.13972000
999.88	3.69830000	0.13716000
