; From SOPRA S.A. http://www.sopra-sa.com/indices.htm
; Filename    Symbol               Range (nm)     Description
; GAAS103T    GaAs                275      999    Gallium Arsenide (Temp: 103 C)
; lambda/nm       n         k
275.83	3.87470000	3.02840000
276.75	3.90540000	2.99100000
277.68	3.93350000	2.95150000
278.62	3.96400000	2.89890000
279.56	3.98820000	2.84550000
280.51	4.00540000	2.79590000
281.46	4.00620000	2.73740000
282.43	3.99860000	2.68610000
283.39	3.99100000	2.63300000
284.37	3.99570000	2.58440000
285.35	3.99170000	2.53670000
286.34	3.97810000	2.49400000
287.34	3.96850000	2.45860000
288.34	3.96060000	2.42290000
289.35	3.94470000	2.38320000
290.36	3.93000000	2.34620000
291.39	3.91260000	2.31250000
292.42	3.89450000	2.28160000
293.46	3.87690000	2.25120000
294.50	3.86230000	2.22970000
295.55	3.84360000	2.20280000
296.62	3.82320000	2.17950000
297.68	3.80560000	2.15770000
298.76	3.79060000	2.13980000
299.84	3.77540000	2.11640000
300.93	3.76030000	2.09850000
302.03	3.75040000	2.08480000
303.14	3.73260000	2.06770000
304.26	3.71670000	2.05370000
305.38	3.70520000	2.04450000
306.51	3.69380000	2.03590000
307.66	3.67800000	2.02640000
308.80	3.66480000	2.01780000
309.96	3.65340000	2.01050000
311.13	3.63920000	1.99850000
312.31	3.62870000	1.99080000
313.49	3.62130000	1.98860000
314.68	3.60710000	1.98520000
315.89	3.59790000	1.98110000
317.10	3.59210000	1.97460000
318.32	3.58660000	1.97200000
319.55	3.57970000	1.97040000
320.79	3.57270000	1.97030000
322.04	3.56630000	1.96840000
323.30	3.55890000	1.96490000
324.57	3.55410000	1.96380000
325.85	3.55110000	1.96590000
327.14	3.54340000	1.96720000
328.44	3.53630000	1.96560000
329.75	3.53400000	1.96670000
331.07	3.52980000	1.96660000
332.40	3.52580000	1.96630000
333.74	3.52350000	1.96690000
335.10	3.52360000	1.96660000
336.46	3.52400000	1.96760000
337.83	3.52630000	1.96730000
339.22	3.53190000	1.96740000
340.62	3.53320000	1.96880000
342.03	3.53560000	1.97360000
343.45	3.53950000	1.98060000
344.88	3.53980000	1.98340000
346.33	3.54290000	1.98820000
347.78	3.54650000	1.99520000
349.25	3.55040000	2.00070000
350.74	3.55440000	2.00720000
352.23	3.55870000	2.01400000
353.74	3.56320000	2.01950000
355.26	3.56900000	2.02660000
356.79	3.57450000	2.03470000
358.34	3.57940000	2.04380000
359.90	3.58660000	2.05210000
361.47	3.59600000	2.05940000
363.06	3.60590000	2.06670000
364.66	3.61590000	2.07410000
366.28	3.62760000	2.08260000
367.91	3.63890000	2.09280000
369.55	3.65160000	2.10280000
371.21	3.66740000	2.11470000
372.89	3.68320000	2.12680000
374.58	3.70020000	2.14020000
376.28	3.72000000	2.15310000
378.00	3.74010000	2.16480000
379.74	3.76070000	2.17750000
381.49	3.78460000	2.19280000
383.26	3.81080000	2.20720000
385.05	3.83900000	2.22410000
386.85	3.87260000	2.24250000
388.67	3.91270000	2.26050000
390.50	3.95790000	2.27700000
392.36	4.00960000	2.29020000
394.23	4.06900000	2.29800000
396.12	4.13090000	2.29620000
398.03	4.19660000	2.28420000
399.95	4.26310000	2.26220000
401.90	4.32160000	2.23010000
403.86	4.37430000	2.19190000
405.84	4.41860000	2.15200000
407.85	4.45450000	2.11090000
409.87	4.48400000	2.07410000
411.91	4.50860000	2.04260000
413.97	4.53270000	2.01780000
416.06	4.55790000	1.99940000
418.16	4.58810000	1.98740000
420.29	4.62870000	1.98020000
422.44	4.68210000	1.97170000
424.61	4.75190000	1.95540000
426.80	4.83440000	1.92370000
429.01	4.92280000	1.86710000
431.25	5.00840000	1.78560000
433.51	5.07760000	1.68290000
435.80	5.12670000	1.56600000
438.11	5.14710000	1.44310000
440.44	5.14500000	1.32720000
442.80	5.12710000	1.22400000
445.19	5.09880000	1.13280000
447.60	5.06480000	1.05460000
450.04	5.02780000	0.98691000
452.50	4.98990000	0.92437000
454.99	4.95080000	0.87016000
457.51	4.91010000	0.82258000
460.06	4.87110000	0.78017000
462.63	4.83100000	0.74143000
465.24	4.79360000	0.70622000
467.87	4.75720000	0.67531000
470.53	4.72340000	0.64470000
473.23	4.69040000	0.61808000
475.95	4.65900000	0.59391000
478.71	4.62750000	0.57030000
481.50	4.59660000	0.54971000
484.32	4.56600000	0.52995000
487.17	4.53640000	0.51209000
490.06	4.50730000	0.49673000
492.98	4.48000000	0.48002000
495.94	4.45380000	0.46377000
498.93	4.42960000	0.44644000
501.96	4.40480000	0.43044000
505.03	4.38110000	0.41727000
508.14	4.35810000	0.40498000
511.28	4.33650000	0.39269000
514.46	4.31530000	0.38192000
517.68	4.29370000	0.37225000
520.95	4.27230000	0.36489000
524.25	4.25270000	0.35530000
527.60	4.23310000	0.34595000
530.99	4.21430000	0.33652000
534.42	4.19540000	0.32614000
537.90	4.17780000	0.31881000
541.42	4.16110000	0.31202000
544.99	4.14480000	0.30666000
548.61	4.12880000	0.30121000
552.27	4.11330000	0.29605000
555.99	4.09870000	0.29068000
559.75	4.08430000	0.28553000
563.57	4.07050000	0.27909000
567.44	4.05690000	0.27399000
571.36	4.04350000	0.26688000
575.34	4.03040000	0.26280000
579.37	4.01820000	0.25722000
583.46	4.00530000	0.25391000
587.61	3.99260000	0.24874000
591.81	3.98020000	0.24552000
596.08	3.96850000	0.24105000
600.41	3.95630000	0.23700000
604.81	3.94490000	0.23218000
609.26	3.93390000	0.22916000
613.79	3.92330000	0.22489000
618.38	3.91350000	0.22131000
623.04	3.90370000	0.21724000
627.77	3.89420000	0.21374000
632.58	3.88470000	0.21036000
637.46	3.87500000	0.20746000
642.41	3.86620000	0.20435000
647.44	3.85750000	0.19984000
652.55	3.84930000	0.19724000
657.75	3.84170000	0.19662000
663.02	3.83470000	0.19325000
668.38	3.82810000	0.19146000
673.83	3.82110000	0.18888000
679.37	3.81480000	0.18430000
685.00	3.80810000	0.18346000
690.73	3.80090000	0.18215000
696.55	3.79550000	0.17773000
702.47	3.79000000	0.17073000
708.49	3.78440000	0.16496000
714.61	3.77900000	0.15543000
720.84	3.77290000	0.14815000
727.19	3.76550000	0.14113000
733.64	3.75840000	0.13345000
740.21	3.75060000	0.12933000
746.90	3.74310000	0.13032000
753.71	3.73500000	0.13069000
760.65	3.72780000	0.12668000
767.71	3.72060000	0.12420000
774.91	3.71440000	0.12455000
782.24	3.70900000	0.12223000
789.71	3.70060000	0.11960000
797.33	3.69400000	0.11392000
805.10	3.68820000	0.10903000
813.02	3.68330000	0.10958000
821.09	3.67730000	0.10814000
829.33	3.67350000	0.10628000
837.74	3.67000000	0.10054000
846.32	3.66620000	0.09820400
855.07	3.66380000	0.09986700
864.01	3.66400000	0.09657700
873.14	3.66360000	0.08730900
882.46	3.66170000	0.07896400
891.98	3.65720000	0.07572500
901.71	3.64750000	0.08112500
911.66	3.63320000	0.08766700
921.82	3.61680000	0.09210100
932.22	3.59650000	0.09954500
942.85	3.57730000	0.10631000
953.73	3.57270000	0.10377000
964.87	3.56810000	0.10126000
976.26	3.56370000	0.09879800
987.93	3.55940000	0.09637300
999.88	3.55510000	0.09398500
