; From SOPRA S.A. http://www.sopra-sa.com/indices.htm
; Filename    Symbol               Range (nm)     Description
; GAAS465T    GaAs                275      999    Gallium Arsenide (Temp: 465 C)
; lambda/nm       n         k
275.83	3.45140000	3.27690000
276.75	3.48200000	3.23670000
277.68	3.50750000	3.19650000
278.62	3.54180000	3.15910000
279.56	3.57370000	3.11730000
280.51	3.59460000	3.07460000
281.46	3.61980000	3.04020000
282.43	3.64660000	3.00610000
283.39	3.67470000	2.97200000
284.37	3.69430000	2.93940000
285.35	3.71550000	2.90330000
286.34	3.72930000	2.86360000
287.34	3.74360000	2.82670000
288.34	3.75700000	2.78940000
289.35	3.76690000	2.74310000
290.36	3.77230000	2.70510000
291.39	3.77310000	2.66090000
292.42	3.77760000	2.62710000
293.46	3.78320000	2.59670000
294.50	3.77700000	2.57050000
295.55	3.77340000	2.53230000
296.62	3.77390000	2.49630000
297.68	3.77230000	2.46150000
298.76	3.77620000	2.42600000
299.84	3.77590000	2.39410000
300.93	3.77060000	2.36850000
302.03	3.76260000	2.33660000
303.14	3.75490000	2.31110000
304.26	3.74770000	2.28750000
305.38	3.73700000	2.26700000
306.51	3.73010000	2.24300000
307.66	3.72670000	2.22350000
308.80	3.72010000	2.20490000
309.96	3.71380000	2.18960000
311.13	3.70590000	2.17620000
312.31	3.69580000	2.16170000
313.49	3.68940000	2.14510000
314.68	3.68100000	2.12850000
315.89	3.67200000	2.11720000
317.10	3.66290000	2.10310000
318.32	3.65730000	2.09080000
319.55	3.65580000	2.08210000
320.79	3.65050000	2.07300000
322.04	3.65040000	2.06430000
323.30	3.64840000	2.05440000
324.57	3.64260000	2.04060000
325.85	3.64110000	2.02980000
327.14	3.63310000	2.02740000
328.44	3.62420000	2.02550000
329.75	3.61720000	2.02030000
331.07	3.61220000	2.01740000
332.40	3.60970000	2.01230000
333.74	3.60590000	2.00610000
335.10	3.60630000	2.00140000
336.46	3.60500000	1.99320000
337.83	3.60400000	1.98320000
339.22	3.60580000	1.97740000
340.62	3.60250000	1.97740000
342.03	3.60250000	1.97330000
343.45	3.60210000	1.96880000
344.88	3.60120000	1.96520000
346.33	3.60180000	1.96080000
347.78	3.60150000	1.95990000
349.25	3.60150000	1.96040000
350.74	3.60240000	1.96130000
352.23	3.60560000	1.96110000
353.74	3.60650000	1.96310000
355.26	3.60760000	1.96270000
356.79	3.60940000	1.96310000
358.34	3.61160000	1.96420000
359.90	3.61370000	1.96650000
361.47	3.61730000	1.96530000
363.06	3.62110000	1.96540000
364.66	3.62580000	1.96690000
366.28	3.63200000	1.96910000
367.91	3.63940000	1.97160000
369.55	3.64520000	1.97520000
371.21	3.65170000	1.97700000
372.89	3.65930000	1.97940000
374.58	3.66820000	1.98150000
376.28	3.67720000	1.98380000
378.00	3.68570000	1.98460000
379.74	3.69600000	1.98730000
381.49	3.70570000	1.98890000
383.26	3.71770000	1.99360000
385.05	3.72950000	1.99820000
386.85	3.74070000	2.00280000
388.67	3.75400000	2.00760000
390.50	3.76900000	2.01270000
392.36	3.78550000	2.01620000
394.23	3.80250000	2.02010000
396.12	3.82060000	2.02470000
398.03	3.84110000	2.02800000
399.95	3.86160000	2.03130000
401.90	3.88580000	2.03590000
403.86	3.91020000	2.03750000
405.84	3.93550000	2.03910000
407.85	3.96320000	2.04060000
409.87	3.99180000	2.04100000
411.91	4.02220000	2.03880000
413.97	4.05290000	2.03670000
416.06	4.08750000	2.03350000
418.16	4.12300000	2.02660000
420.29	4.15770000	2.01810000
422.44	4.19530000	2.00640000
424.61	4.23170000	1.99190000
426.80	4.26800000	1.97500000
429.01	4.30430000	1.95710000
431.25	4.33910000	1.93660000
433.51	4.37220000	1.91450000
435.80	4.40450000	1.89200000
438.11	4.43860000	1.86620000
440.44	4.46940000	1.83960000
442.80	4.50020000	1.81280000
445.19	4.53180000	1.78620000
447.60	4.56280000	1.75900000
450.04	4.59550000	1.73020000
452.50	4.63010000	1.69830000
454.99	4.66470000	1.66370000
457.51	4.69950000	1.62340000
460.06	4.73350000	1.57780000
462.63	4.76540000	1.52600000
465.24	4.79250000	1.47240000
467.87	4.81690000	1.41370000
470.53	4.83510000	1.35220000
473.23	4.84610000	1.28990000
475.95	4.85080000	1.22670000
478.71	4.84930000	1.16320000
481.50	4.84110000	1.10130000
484.32	4.82660000	1.04110000
487.17	4.80770000	0.98444000
490.06	4.78660000	0.93161000
492.98	4.76410000	0.88223000
495.94	4.73900000	0.83773000
498.93	4.71360000	0.79479000
501.96	4.68870000	0.75729000
505.03	4.66180000	0.72293000
508.14	4.63450000	0.69162000
511.28	4.60780000	0.66228000
514.46	4.58080000	0.63525000
517.68	4.55360000	0.61112000
520.95	4.52820000	0.58787000
524.25	4.50380000	0.56543000
527.60	4.47970000	0.54584000
530.99	4.45690000	0.52565000
534.42	4.43530000	0.50654000
537.90	4.41280000	0.48932000
541.42	4.39090000	0.47366000
544.99	4.37120000	0.45856000
548.61	4.35080000	0.44665000
552.27	4.33150000	0.43457000
555.99	4.31350000	0.42216000
559.75	4.29640000	0.40998000
563.57	4.27890000	0.39985000
567.44	4.26180000	0.39050000
571.36	4.24390000	0.38104000
575.34	4.22590000	0.37168000
579.37	4.20860000	0.36276000
583.46	4.19210000	0.35442000
587.61	4.17530000	0.34807000
591.81	4.15950000	0.33821000
596.08	4.14460000	0.33012000
600.41	4.13020000	0.32165000
604.81	4.11550000	0.31368000
609.26	4.10120000	0.30693000
613.79	4.08680000	0.30044000
618.38	4.07260000	0.29326000
623.04	4.05960000	0.28594000
627.77	4.04710000	0.27878000
632.58	4.03490000	0.27434000
637.46	4.02310000	0.26901000
642.41	4.01110000	0.26692000
647.44	4.00010000	0.26305000
652.55	3.98900000	0.25751000
657.75	3.97770000	0.25315000
663.02	3.96720000	0.25142000
668.38	3.95600000	0.24883000
673.83	3.94660000	0.24426000
679.37	3.93720000	0.24374000
685.00	3.92890000	0.24234000
690.73	3.91960000	0.23945000
696.55	3.91090000	0.23790000
702.47	3.90270000	0.23281000
708.49	3.89470000	0.22853000
714.61	3.88560000	0.22251000
720.84	3.87630000	0.21836000
727.19	3.86720000	0.21556000
733.64	3.86030000	0.20900000
740.21	3.85400000	0.21461000
746.90	3.84740000	0.21064000
753.71	3.84150000	0.20333000
760.65	3.83440000	0.19921000
767.71	3.82670000	0.19331000
774.91	3.82110000	0.19329000
782.24	3.81490000	0.19168000
789.71	3.80960000	0.18825000
797.33	3.80370000	0.18826000
805.10	3.80110000	0.18268000
813.02	3.79490000	0.18319000
821.09	3.78810000	0.17266000
829.33	3.78400000	0.16333000
837.74	3.77800000	0.15662000
846.32	3.77130000	0.14956000
855.07	3.76510000	0.14679000
864.01	3.75750000	0.14563000
873.14	3.75280000	0.14312000
882.46	3.74600000	0.14662000
891.98	3.74100000	0.14260000
901.71	3.73160000	0.14046000
911.66	3.72690000	0.13665000
921.82	3.72180000	0.12951000
932.22	3.71890000	0.12315000
942.85	3.71510000	0.12895000
953.73	3.71000000	0.12715000
964.87	3.70500000	0.12537000
976.26	3.70010000	0.12362000
987.93	3.69530000	0.12190000
999.88	3.69060000	0.12021000
