; From SOPRA S.A. http://www.sopra-sa.com/indices.htm
; Filename    Symbol               Range (nm)     Description
; GAAS150T    GaAs                275      999    Gallium Arsenide (Temp: 150 C)
; lambda/nm       n         k
275.83	3.82050000	3.05500000
276.75	3.85050000	3.01470000
277.68	3.86980000	2.97380000
278.62	3.88770000	2.93240000
279.56	3.90210000	2.89660000
280.51	3.91830000	2.85550000
281.46	3.93700000	2.80190000
282.43	3.94760000	2.74990000
283.39	3.95410000	2.70570000
284.37	3.95930000	2.65210000
285.35	3.96490000	2.60100000
286.34	3.95900000	2.55290000
287.34	3.95360000	2.50780000
288.34	3.94580000	2.47110000
289.35	3.93850000	2.43430000
290.36	3.92600000	2.39410000
291.39	3.91510000	2.36130000
292.42	3.89960000	2.32740000
293.46	3.88200000	2.30130000
294.50	3.86900000	2.27110000
295.55	3.85410000	2.24440000
296.62	3.83700000	2.22250000
297.68	3.82390000	2.19950000
298.76	3.81330000	2.17950000
299.84	3.79960000	2.16110000
300.93	3.78240000	2.14430000
302.03	3.76330000	2.12830000
303.14	3.74590000	2.10890000
304.26	3.72800000	2.09210000
305.38	3.71200000	2.07770000
306.51	3.69670000	2.06540000
307.66	3.68410000	2.05380000
308.80	3.67500000	2.04170000
309.96	3.66680000	2.02840000
311.13	3.65960000	2.01990000
312.31	3.65170000	2.01430000
313.49	3.64130000	2.00780000
314.68	3.63080000	2.00250000
315.89	3.62040000	1.99530000
317.10	3.61190000	1.99040000
318.32	3.60420000	1.98550000
319.55	3.59580000	1.97960000
320.79	3.58650000	1.97480000
322.04	3.57920000	1.97170000
323.30	3.57540000	1.97000000
324.57	3.56840000	1.96910000
325.85	3.56180000	1.97220000
327.14	3.55780000	1.97310000
328.44	3.55450000	1.97130000
329.75	3.54800000	1.96820000
331.07	3.54020000	1.96280000
332.40	3.53520000	1.95840000
333.74	3.53100000	1.96320000
335.10	3.53050000	1.96530000
336.46	3.53230000	1.96720000
337.83	3.53400000	1.96860000
339.22	3.53910000	1.97310000
340.62	3.54440000	1.97560000
342.03	3.54830000	1.97680000
343.45	3.54850000	1.97520000
344.88	3.54850000	1.97500000
346.33	3.55240000	1.97770000
347.78	3.55390000	1.98440000
349.25	3.55670000	1.98810000
350.74	3.56090000	1.99230000
352.23	3.56540000	1.99590000
353.74	3.57080000	2.00080000
355.26	3.57500000	2.00740000
356.79	3.58070000	2.01420000
358.34	3.58650000	2.02150000
359.90	3.59270000	2.03020000
361.47	3.59920000	2.03690000
363.06	3.60780000	2.04370000
364.66	3.61800000	2.05180000
366.28	3.62890000	2.05890000
367.91	3.63980000	2.06680000
369.55	3.65270000	2.07440000
371.21	3.66480000	2.08350000
372.89	3.67820000	2.09380000
374.58	3.69190000	2.10450000
376.28	3.70740000	2.11530000
378.00	3.72460000	2.12570000
379.74	3.74480000	2.13640000
381.49	3.76620000	2.14880000
383.26	3.78910000	2.16060000
385.05	3.81480000	2.17330000
386.85	3.84330000	2.18710000
388.67	3.87470000	2.20190000
390.50	3.91040000	2.21700000
392.36	3.95080000	2.23110000
394.23	3.99670000	2.24170000
396.12	4.04840000	2.24910000
398.03	4.10450000	2.24920000
399.95	4.16360000	2.24260000
401.90	4.22310000	2.22760000
403.86	4.28120000	2.20400000
405.84	4.33440000	2.17580000
407.85	4.38200000	2.14200000
409.87	4.42240000	2.10640000
411.91	4.45620000	2.07120000
413.97	4.48610000	2.03900000
416.06	4.51340000	2.00970000
418.16	4.53940000	1.98350000
420.29	4.56870000	1.96290000
422.44	4.60310000	1.94600000
424.61	4.64680000	1.93170000
426.80	4.70240000	1.91540000
429.01	4.77030000	1.89030000
431.25	4.84560000	1.84890000
433.51	4.92270000	1.79000000
435.80	4.99370000	1.71150000
438.11	5.04910000	1.61350000
440.44	5.08600000	1.50430000
442.80	5.09970000	1.39590000
445.19	5.09500000	1.29320000
447.60	5.07790000	1.19970000
450.04	5.05260000	1.11630000
452.50	5.02280000	1.04090000
454.99	4.98850000	0.97458000
457.51	4.95300000	0.91595000
460.06	4.91640000	0.86309000
462.63	4.87890000	0.81466000
465.24	4.84280000	0.77238000
467.87	4.80610000	0.73512000
470.53	4.77090000	0.70131000
473.23	4.73690000	0.67124000
475.95	4.70300000	0.64389000
478.71	4.67080000	0.61617000
481.50	4.63970000	0.59102000
484.32	4.60900000	0.56573000
487.17	4.57970000	0.54245000
490.06	4.55040000	0.52311000
492.98	4.52130000	0.50568000
495.94	4.49370000	0.48654000
498.93	4.46720000	0.47003000
501.96	4.44070000	0.45613000
505.03	4.41530000	0.44223000
508.14	4.39090000	0.42878000
511.28	4.36760000	0.41625000
514.46	4.34470000	0.40348000
517.68	4.32300000	0.39290000
520.95	4.30170000	0.38359000
524.25	4.28030000	0.37322000
527.60	4.26070000	0.36227000
530.99	4.24160000	0.35284000
534.42	4.22270000	0.34470000
537.90	4.20540000	0.33472000
541.42	4.18800000	0.32688000
544.99	4.17150000	0.31906000
548.61	4.15500000	0.31130000
552.27	4.13910000	0.30561000
555.99	4.12350000	0.29922000
559.75	4.10840000	0.29375000
563.57	4.09400000	0.28812000
567.44	4.07970000	0.28258000
571.36	4.06570000	0.27846000
575.34	4.05200000	0.27286000
579.37	4.03850000	0.26768000
583.46	4.02540000	0.26253000
587.61	4.01210000	0.25766000
591.81	3.99930000	0.25362000
596.08	3.98720000	0.24921000
600.41	3.97550000	0.24505000
604.81	3.96410000	0.24034000
609.26	3.95310000	0.23588000
613.79	3.94230000	0.23168000
618.38	3.93110000	0.22716000
623.04	3.92090000	0.22233000
627.77	3.91090000	0.21820000
632.58	3.90100000	0.21425000
637.46	3.89150000	0.21016000
642.41	3.88220000	0.20694000
647.44	3.87320000	0.20393000
652.55	3.86450000	0.20288000
657.75	3.85650000	0.19929000
663.02	3.84890000	0.19587000
668.38	3.84140000	0.19385000
673.83	3.83470000	0.19119000
679.37	3.82820000	0.18668000
685.00	3.82140000	0.18290000
690.73	3.81430000	0.17790000
696.55	3.80740000	0.17399000
702.47	3.80160000	0.17129000
708.49	3.79550000	0.17021000
714.61	3.79040000	0.16709000
720.84	3.78510000	0.16559000
727.19	3.77900000	0.15972000
733.64	3.77270000	0.15318000
740.21	3.76560000	0.14729000
746.90	3.75680000	0.14021000
753.71	3.74970000	0.13604000
760.65	3.74210000	0.13026000
767.71	3.73510000	0.12840000
774.91	3.72750000	0.12622000
782.24	3.72040000	0.12552000
789.71	3.71320000	0.12376000
797.33	3.70780000	0.11938000
805.10	3.70190000	0.11747000
813.02	3.69590000	0.11017000
821.09	3.69040000	0.10177000
829.33	3.68580000	0.10558000
837.74	3.68260000	0.10705000
846.32	3.67800000	0.10987000
855.07	3.67360000	0.10839000
864.01	3.67130000	0.11227000
873.14	3.66770000	0.11026000
882.46	3.66650000	0.10440000
891.98	3.66540000	0.09478000
901.71	3.66470000	0.08428900
911.66	3.65910000	0.08206500
921.82	3.64730000	0.08800800
932.22	3.63280000	0.09591400
942.85	3.61500000	0.10157000
953.73	3.61050000	0.09983500
964.87	3.60620000	0.09811900
976.26	3.60190000	0.09642100
987.93	3.59760000	0.09474000
999.88	3.59350000	0.09308400
