; From SOPRA S.A. http://www.sopra-sa.com/indices.htm
; Filename    Symbol               Range (nm)     Description
; GAASO       GaAsO               206     1239    Gallium Arsenide Oxide
; lambda/nm       n         k
206.64	1.99000000	0.66400000
208.38	1.98756200	0.65625000
210.14	1.99900000	0.64700000
211.94	2.02168800	0.63575000
213.77	2.05300000	0.62200000
215.63	2.09018800	0.60500000
217.52	2.13100000	0.58500000
219.44	2.17325000	0.56231300
221.40	2.21400000	0.53600000
223.40	2.25212500	0.50612500
225.43	2.28000000	0.47000000
227.50	2.28612500	0.42281200
229.60	2.28100000	0.37100000
231.75	2.27100000	0.31856200
233.93	2.25700000	0.26800000
236.16	2.24200000	0.22325000
238.43	2.22600000	0.18400000
240.75	2.21018800	0.15206300
243.11	2.19400000	0.12500000
245.52	2.17687500	0.10087500
247.97	2.16000000	0.08000000
250.48	2.14475000	0.06206200
253.03	2.13000000	0.04700000
255.64	2.11525000	0.03468700
258.30	2.10000000	0.02500000
261.02	2.08325000	0.01793700
263.80	2.06600000	0.01300000
266.63	2.04887500	0.00975000
269.53	2.03200000	0.00800000
272.49	2.01531300	0.00781300
275.52	2.00000000	0.00800000
278.62	1.98762500	0.00712500
281.78	1.97700000	0.00600000
285.02	1.96756200	0.00487500
288.34	1.95900000	0.00400000
291.73	1.95062500	0.00387500
295.20	1.94300000	0.00400000
298.76	1.93668700	0.00393800
302.40	1.93100000	0.00400000
306.14	1.92550000	0.00456200
309.96	1.92000000	0.00500000
313.89	1.91393800	0.00456300
317.91	1.90800000	0.00400000
322.04	1.90287500	0.00400000
326.28	1.89800000	0.00400000
330.63	1.89293700	0.00350000
335.10	1.88800000	0.00300000
339.69	1.88343700	0.00300000
344.40	1.87900000	0.00300000
349.25	1.87443800	0.00256300
354.24	1.87000000	0.00200000
359.38	1.86600000	0.00143800
364.66	1.86200000	0.00100000
370.11	1.85750000	0.00093700
375.71	1.85300000	0.00100000
381.49	1.84887500	0.00106300
387.45	1.84500000	0.00100000
393.60	1.84150000	0.00050000
399.95	1.83800000	0.00000000
406.51	1.83412500	0.00006200
413.28	1.83000000	0.00000000
420.29	1.82556300	0.00000000
427.54	1.82100000	0.00000000
435.04	1.81643700	0.00000000
442.80	1.81200000	0.00000000
450.86	1.80787500	0.00000000
459.20	1.80400000	0.00000000
467.87	1.80043700	0.00000000
476.87	1.79700000	0.00000000
486.22	1.79325000	0.00000000
495.94	1.79000000	0.00000000
506.06	1.78825000	0.00000000
516.60	1.78700000	0.00000000
527.60	1.78537500	0.00000000
539.07	1.78400000	0.00000000
551.05	1.78343700	0.00000000
563.57	1.78300000	0.00000000
576.68	1.78200000	0.00000000
590.41	1.78100000	0.00000000
604.81	1.78056200	0.00000000
619.93	1.78000000	0.00000000
635.82	1.77862500	0.00000000
652.55	1.77700000	0.00000000
670.19	1.77550000	0.00000000
688.81	1.77400000	0.00000000
708.49	1.77250000	0.00000000
729.32	1.77100000	0.00000000
751.43	1.76950000	0.00000000
774.91	1.76800000	0.00000000
799.90	1.76650000	0.00000000
826.57	1.76500000	0.00000000
855.07	1.76343800	0.00000000
885.61	1.76200000	0.00000000
918.41	1.76093700	0.00000000
953.73	1.76000000	0.00000000
991.88	1.75900000	0.00000000
1033.21	1.75800000	0.00000000
1078.13	1.75693800	0.00000000
1127.14	1.75600000	0.00000000
1180.81	1.75531300	0.00000000
1239.85	1.75500000	0.00000000
