; From SOPRA S.A. http://www.sopra-sa.com/indices.htm
; Filename    Symbol               Range (nm)     Description
; GAAS126T    GaAs                275      999    Gallium Arsenide (Temp: 126 C)
; lambda/nm       n         k
275.83	3.85010000	3.06000000
276.75	3.87540000	3.03050000
277.68	3.90310000	2.98450000
278.62	3.92750000	2.92970000
279.56	3.94340000	2.89000000
280.51	3.95830000	2.83680000
281.46	3.96900000	2.77950000
282.43	3.98380000	2.71770000
283.39	3.98690000	2.66210000
284.37	3.98420000	2.62200000
285.35	3.97990000	2.57430000
286.34	3.97060000	2.53060000
287.34	3.95220000	2.48770000
288.34	3.93420000	2.43860000
289.35	3.92000000	2.40240000
290.36	3.90790000	2.35510000
291.39	3.89650000	2.31930000
292.42	3.89110000	2.28780000
293.46	3.87880000	2.26420000
294.50	3.87050000	2.24830000
295.55	3.85400000	2.22550000
296.62	3.83760000	2.20620000
297.68	3.82130000	2.18930000
298.76	3.80560000	2.16730000
299.84	3.79180000	2.14570000
300.93	3.77670000	2.12200000
302.03	3.75810000	2.10180000
303.14	3.74350000	2.08240000
304.26	3.72820000	2.06890000
305.38	3.71510000	2.05590000
306.51	3.69650000	2.04290000
307.66	3.68300000	2.03300000
308.80	3.67110000	2.02540000
309.96	3.66060000	2.01670000
311.13	3.65140000	2.00900000
312.31	3.64080000	2.00180000
313.49	3.63330000	1.99560000
314.68	3.62570000	1.99560000
315.89	3.61560000	1.99400000
317.10	3.60870000	1.98900000
318.32	3.59930000	1.98660000
319.55	3.59360000	1.98160000
320.79	3.58360000	1.97880000
322.04	3.57480000	1.97400000
323.30	3.56510000	1.96770000
324.57	3.56070000	1.96250000
325.85	3.55570000	1.96150000
327.14	3.54640000	1.96330000
328.44	3.54090000	1.96140000
329.75	3.53920000	1.95610000
331.07	3.54200000	1.95600000
332.40	3.54080000	1.95630000
333.74	3.53520000	1.96500000
335.10	3.53480000	1.97000000
336.46	3.53510000	1.97450000
337.83	3.53930000	1.97860000
339.22	3.53790000	1.98310000
340.62	3.53650000	1.98510000
342.03	3.53800000	1.98370000
343.45	3.54020000	1.97900000
344.88	3.54670000	1.97870000
346.33	3.54680000	1.98090000
347.78	3.54850000	1.98930000
349.25	3.55120000	1.99520000
350.74	3.55440000	2.00100000
352.23	3.56000000	2.00750000
353.74	3.56610000	2.01380000
355.26	3.57070000	2.02090000
356.79	3.57580000	2.02810000
358.34	3.58270000	2.03580000
359.90	3.59020000	2.04260000
361.47	3.59760000	2.05130000
363.06	3.60700000	2.05950000
364.66	3.61570000	2.06790000
366.28	3.62490000	2.07540000
367.91	3.63720000	2.08300000
369.55	3.65020000	2.09060000
371.21	3.66310000	2.09990000
372.89	3.67920000	2.10970000
374.58	3.69610000	2.11990000
376.28	3.71360000	2.13130000
378.00	3.73160000	2.14440000
379.74	3.75330000	2.15800000
381.49	3.77520000	2.17350000
383.26	3.79870000	2.18770000
385.05	3.82710000	2.20220000
386.85	3.85870000	2.21690000
388.67	3.89420000	2.23200000
390.50	3.93530000	2.24660000
392.36	3.97980000	2.25920000
394.23	4.03060000	2.26960000
396.12	4.08730000	2.27360000
398.03	4.15010000	2.27070000
399.95	4.21310000	2.25880000
401.90	4.27330000	2.23560000
403.86	4.33030000	2.20390000
405.84	4.37980000	2.16750000
407.85	4.42130000	2.12980000
409.87	4.45580000	2.09370000
411.91	4.48500000	2.05980000
413.97	4.51110000	2.02920000
416.06	4.53670000	2.00450000
418.16	4.56530000	1.98530000
420.29	4.59950000	1.97050000
422.44	4.64140000	1.95860000
424.61	4.69690000	1.94470000
426.80	4.76470000	1.92400000
429.01	4.84410000	1.88720000
431.25	4.92860000	1.82900000
433.51	5.00680000	1.74840000
435.80	5.07010000	1.64770000
438.11	5.11030000	1.53510000
440.44	5.12890000	1.41900000
442.80	5.12520000	1.30940000
445.19	5.10690000	1.21050000
447.60	5.07870000	1.12400000
450.04	5.04610000	1.04870000
452.50	5.00990000	0.97999000
454.99	4.97270000	0.91971000
457.51	4.93450000	0.86638000
460.06	4.89590000	0.81868000
462.63	4.85650000	0.77521000
465.24	4.81880000	0.73722000
467.87	4.78290000	0.70185000
470.53	4.74820000	0.66863000
473.23	4.71390000	0.64189000
475.95	4.68160000	0.61629000
478.71	4.64910000	0.59198000
481.50	4.61850000	0.56832000
484.32	4.58790000	0.54660000
487.17	4.55860000	0.52656000
490.06	4.53070000	0.50633000
492.98	4.50380000	0.48834000
495.94	4.47670000	0.47176000
498.93	4.45000000	0.45668000
501.96	4.42430000	0.44444000
505.03	4.39950000	0.43164000
508.14	4.37470000	0.41976000
511.28	4.35070000	0.40824000
514.46	4.32760000	0.39620000
517.68	4.30560000	0.38610000
520.95	4.28500000	0.37343000
524.25	4.26620000	0.36250000
527.60	4.24640000	0.35322000
530.99	4.22790000	0.34393000
534.42	4.21020000	0.33504000
537.90	4.19300000	0.32595000
541.42	4.17590000	0.31864000
544.99	4.15950000	0.31221000
548.61	4.14290000	0.30586000
552.27	4.12670000	0.30165000
555.99	4.11120000	0.29620000
559.75	4.09700000	0.29025000
563.57	4.08210000	0.28466000
567.44	4.06770000	0.27913000
571.36	4.05420000	0.27279000
575.34	4.04070000	0.26716000
579.37	4.02800000	0.26255000
583.46	4.01540000	0.25826000
587.61	4.00270000	0.25264000
591.81	3.99040000	0.24860000
596.08	3.97820000	0.24499000
600.41	3.96650000	0.23988000
604.81	3.95480000	0.23535000
609.26	3.94370000	0.23067000
613.79	3.93300000	0.22563000
618.38	3.92210000	0.22258000
623.04	3.91190000	0.21920000
627.77	3.90130000	0.21683000
632.58	3.89160000	0.21362000
637.46	3.88180000	0.21255000
642.41	3.87310000	0.20886000
647.44	3.86430000	0.20619000
652.55	3.85620000	0.20206000
657.75	3.84840000	0.19859000
663.02	3.84110000	0.19550000
668.38	3.83410000	0.19276000
673.83	3.82750000	0.18862000
679.37	3.82050000	0.18330000
685.00	3.81480000	0.18280000
690.73	3.80880000	0.18077000
696.55	3.80290000	0.17641000
702.47	3.79720000	0.17374000
708.49	3.79210000	0.16998000
714.61	3.78590000	0.16812000
720.84	3.77960000	0.16359000
727.19	3.77190000	0.15643000
733.64	3.76430000	0.14726000
740.21	3.75630000	0.14142000
746.90	3.74700000	0.13750000
753.71	3.73960000	0.12925000
760.65	3.73230000	0.12314000
767.71	3.72580000	0.11908000
774.91	3.71970000	0.12134000
782.24	3.71380000	0.12269000
789.71	3.70790000	0.12206000
797.33	3.70140000	0.11771000
805.10	3.69520000	0.11692000
813.02	3.68840000	0.11614000
821.09	3.68340000	0.11118000
829.33	3.68230000	0.11108000
837.74	3.67870000	0.10465000
846.32	3.67470000	0.10010000
855.07	3.67130000	0.09806100
864.01	3.67050000	0.09603900
873.14	3.66750000	0.08689100
882.46	3.66600000	0.07363800
891.98	3.66180000	0.06813000
901.71	3.65720000	0.06341200
911.66	3.64650000	0.06973300
921.82	3.63000000	0.08477100
932.22	3.61310000	0.09364300
942.85	3.59360000	0.10958000
953.73	3.58900000	0.10737000
964.87	3.58440000	0.10520000
976.26	3.57990000	0.10305000
987.93	3.57490000	0.10137000
999.88	3.57120000	0.09886700
