; From SOPRA S.A. http://www.sopra-sa.com/indices.htm
; Filename    Symbol               Range (nm)     Description
; GAAS320T    GaAs                275      999    Gallium Arsenide (Temp: 320 C)
; lambda/nm       n         k
275.83	3.66140000	3.17050000
276.75	3.68370000	3.13840000
277.68	3.72300000	3.10090000
278.62	3.74900000	3.06450000
279.56	3.76850000	3.01920000
280.51	3.78340000	2.97880000
281.46	3.79070000	2.92700000
282.43	3.80890000	2.87710000
283.39	3.81840000	2.83450000
284.37	3.82840000	2.79420000
285.35	3.82930000	2.75320000
286.34	3.83700000	2.71940000
287.34	3.83960000	2.67390000
288.34	3.84530000	2.63840000
289.35	3.84760000	2.60490000
290.36	3.85100000	2.56700000
291.39	3.84840000	2.52610000
292.42	3.84850000	2.48560000
293.46	3.84820000	2.45230000
294.50	3.84710000	2.41980000
295.55	3.83570000	2.38650000
296.62	3.82660000	2.36300000
297.68	3.81600000	2.32900000
298.76	3.80690000	2.30750000
299.84	3.79840000	2.28160000
300.93	3.79030000	2.26030000
302.03	3.77640000	2.24080000
303.14	3.76950000	2.21850000
304.26	3.76290000	2.20050000
305.38	3.75300000	2.18210000
306.51	3.73600000	2.16370000
307.66	3.72360000	2.14770000
308.80	3.71100000	2.12860000
309.96	3.69850000	2.11470000
311.13	3.69010000	2.09820000
312.31	3.68330000	2.08610000
313.49	3.67590000	2.07110000
314.68	3.67190000	2.05540000
315.89	3.66350000	2.04290000
317.10	3.65600000	2.03780000
318.32	3.64770000	2.03040000
319.55	3.63930000	2.02440000
320.79	3.62820000	2.02030000
322.04	3.61990000	2.01550000
323.30	3.61140000	2.01250000
324.57	3.60730000	2.00390000
325.85	3.60680000	1.99540000
327.14	3.60220000	1.98730000
328.44	3.59840000	1.98500000
329.75	3.59680000	1.98520000
331.07	3.59380000	1.98150000
332.40	3.58880000	1.97750000
333.74	3.58540000	1.97550000
335.10	3.58230000	1.96970000
336.46	3.57940000	1.96550000
337.83	3.58080000	1.95970000
339.22	3.58110000	1.95760000
340.62	3.57810000	1.95770000
342.03	3.57880000	1.95940000
343.45	3.57700000	1.96140000
344.88	3.57460000	1.96250000
346.33	3.57520000	1.96630000
347.78	3.57670000	1.96830000
349.25	3.57910000	1.96820000
350.74	3.58210000	1.96960000
352.23	3.58590000	1.97110000
353.74	3.58860000	1.97350000
355.26	3.59130000	1.97660000
356.79	3.59460000	1.97950000
358.34	3.59920000	1.98310000
359.90	3.60310000	1.98550000
361.47	3.60850000	1.99080000
363.06	3.61520000	1.99430000
364.66	3.62250000	1.99800000
366.28	3.62930000	2.00280000
367.91	3.63660000	2.00750000
369.55	3.64430000	2.01330000
371.21	3.65270000	2.02020000
372.89	3.66150000	2.02760000
374.58	3.67260000	2.03440000
376.28	3.68250000	2.04000000
378.00	3.69510000	2.04680000
379.74	3.70890000	2.05220000
381.49	3.72400000	2.05710000
383.26	3.74010000	2.06220000
385.05	3.75700000	2.06810000
386.85	3.77500000	2.07560000
388.67	3.79410000	2.08390000
390.50	3.81380000	2.09330000
392.36	3.83540000	2.10280000
394.23	3.85870000	2.11090000
396.12	3.88570000	2.11870000
398.03	3.91520000	2.12560000
399.95	3.94780000	2.13120000
401.90	3.98270000	2.13550000
403.86	4.02070000	2.13860000
405.84	4.06070000	2.13930000
407.85	4.10260000	2.13640000
409.87	4.14580000	2.13100000
411.91	4.18960000	2.12130000
413.97	4.23380000	2.10560000
416.06	4.27800000	2.08670000
418.16	4.32040000	2.06430000
420.29	4.35960000	2.03960000
422.44	4.39660000	2.01300000
424.61	4.43170000	1.98610000
426.80	4.46480000	1.95930000
429.01	4.49760000	1.93320000
431.25	4.53080000	1.90590000
433.51	4.56440000	1.88010000
435.80	4.60050000	1.85330000
438.11	4.64160000	1.82500000
440.44	4.68620000	1.79380000
442.80	4.73320000	1.75860000
445.19	4.78230000	1.71500000
447.60	4.83000000	1.66410000
450.04	4.87480000	1.60310000
452.50	4.91190000	1.53370000
454.99	4.93820000	1.45670000
457.51	4.95520000	1.37660000
460.06	4.96090000	1.29760000
462.63	4.95860000	1.22080000
465.24	4.94870000	1.14970000
467.87	4.93280000	1.08290000
470.53	4.91110000	1.02000000
473.23	4.88600000	0.96346000
475.95	4.85720000	0.91266000
478.71	4.82840000	0.86372000
481.50	4.79650000	0.81932000
484.32	4.76470000	0.77874000
487.17	4.73400000	0.74093000
490.06	4.70240000	0.70738000
492.98	4.67260000	0.67607000
495.94	4.64280000	0.64566000
498.93	4.61340000	0.61788000
501.96	4.58530000	0.59186000
505.03	4.55620000	0.56969000
508.14	4.52920000	0.54671000
511.28	4.50180000	0.52742000
514.46	4.47630000	0.50898000
517.68	4.45150000	0.49093000
520.95	4.42670000	0.47555000
524.25	4.40400000	0.46003000
527.60	4.38130000	0.44475000
530.99	4.36010000	0.42994000
534.42	4.33890000	0.41719000
537.90	4.31740000	0.40642000
541.42	4.29670000	0.39549000
544.99	4.27760000	0.38509000
548.61	4.25880000	0.37568000
552.27	4.24090000	0.36682000
555.99	4.22410000	0.35778000
559.75	4.20730000	0.34941000
563.57	4.19090000	0.34087000
567.44	4.17530000	0.33274000
571.36	4.15950000	0.32584000
575.34	4.14310000	0.32089000
579.37	4.12690000	0.31509000
583.46	4.11210000	0.30814000
587.61	4.09700000	0.30135000
591.81	4.08320000	0.29454000
596.08	4.06930000	0.28705000
600.41	4.05520000	0.28191000
604.81	4.04240000	0.27496000
609.26	4.03020000	0.26795000
613.79	4.01750000	0.26204000
618.38	4.00490000	0.25713000
623.04	3.99290000	0.25218000
627.77	3.98130000	0.24808000
632.58	3.96930000	0.24559000
637.46	3.95800000	0.24248000
642.41	3.94690000	0.23941000
647.44	3.93640000	0.23746000
652.55	3.92750000	0.23224000
657.75	3.91820000	0.22737000
663.02	3.90960000	0.22404000
668.38	3.90050000	0.21991000
673.83	3.89270000	0.21597000
679.37	3.88440000	0.21165000
685.00	3.87640000	0.20840000
690.73	3.86800000	0.20421000
696.55	3.86070000	0.20159000
702.47	3.85290000	0.19641000
708.49	3.84620000	0.19244000
714.61	3.83920000	0.18868000
720.84	3.83260000	0.18530000
727.19	3.82570000	0.18448000
733.64	3.81950000	0.18311000
740.21	3.81350000	0.17945000
746.90	3.80730000	0.17723000
753.71	3.80230000	0.17690000
760.65	3.79760000	0.17605000
767.71	3.79210000	0.17111000
774.91	3.78650000	0.16119000
782.24	3.77980000	0.15396000
789.71	3.77180000	0.14712000
797.33	3.76370000	0.14400000
805.10	3.75550000	0.13911000
813.02	3.74580000	0.13044000
821.09	3.73820000	0.12612000
829.33	3.73140000	0.12700000
837.74	3.72510000	0.12598000
846.32	3.71970000	0.12285000
855.07	3.71570000	0.11934000
864.01	3.71020000	0.11925000
873.14	3.70480000	0.11767000
882.46	3.70020000	0.11766000
891.98	3.69650000	0.11634000
901.71	3.69530000	0.11840000
911.66	3.69150000	0.11480000
921.82	3.68760000	0.11611000
932.22	3.68720000	0.11161000
942.85	3.68700000	0.10890000
953.73	3.68040000	0.11554000
964.87	3.67580000	0.11455000
976.26	3.67120000	0.11359000
987.93	3.66670000	0.11264000
999.88	3.66230000	0.11171000
