; From SOPRA S.A. http://www.sopra-sa.com/indices.htm
; Filename    Symbol               Range (nm)     Description
; GAAS603T    GaAs                275      999    Gallium Arsenide (Temp: 603 C)
; lambda/nm       n         k
275.83	3.25080000	3.28230000
276.75	3.28870000	3.25650000
277.68	3.33350000	3.22900000
278.62	3.37160000	3.20300000
279.56	3.41700000	3.17960000
280.51	3.45420000	3.14770000
281.46	3.47970000	3.10490000
282.43	3.50650000	3.07200000
283.39	3.52660000	3.04330000
284.37	3.54630000	3.01610000
285.35	3.56430000	2.98260000
286.34	3.57710000	2.94610000
287.34	3.59990000	2.91190000
288.34	3.62210000	2.87660000
289.35	3.64570000	2.83760000
290.36	3.66420000	2.79050000
291.39	3.68210000	2.74600000
292.42	3.69580000	2.71400000
293.46	3.70360000	2.68070000
294.50	3.71070000	2.65190000
295.55	3.71500000	2.61950000
296.62	3.71450000	2.59100000
297.68	3.71730000	2.56580000
298.76	3.72210000	2.53480000
299.84	3.72570000	2.50230000
300.93	3.72610000	2.47220000
302.03	3.72600000	2.44410000
303.14	3.72560000	2.41780000
304.26	3.72250000	2.38990000
305.38	3.72090000	2.36470000
306.51	3.71810000	2.33940000
307.66	3.71820000	2.31800000
308.80	3.71650000	2.29820000
309.96	3.71720000	2.27640000
311.13	3.71300000	2.25860000
312.31	3.70680000	2.24170000
313.49	3.70060000	2.22350000
314.68	3.69280000	2.20860000
315.89	3.68560000	2.19260000
317.10	3.68300000	2.17570000
318.32	3.67900000	2.15870000
319.55	3.67720000	2.14460000
320.79	3.67580000	2.13110000
322.04	3.67500000	2.11890000
323.30	3.66930000	2.10940000
324.57	3.66540000	2.09780000
325.85	3.65970000	2.08850000
327.14	3.65270000	2.08090000
328.44	3.64820000	2.07160000
329.75	3.64360000	2.06370000
331.07	3.63990000	2.05450000
332.40	3.63690000	2.04550000
333.74	3.63720000	2.03660000
335.10	3.63880000	2.02640000
336.46	3.64050000	2.01570000
337.83	3.64100000	2.00340000
339.22	3.64140000	1.99330000
340.62	3.64120000	1.98340000
342.03	3.63970000	1.97680000
343.45	3.63680000	1.97440000
344.88	3.63530000	1.97050000
346.33	3.63360000	1.96770000
347.78	3.63260000	1.96660000
349.25	3.63300000	1.96400000
350.74	3.63360000	1.96180000
352.23	3.63300000	1.95950000
353.74	3.63350000	1.95770000
355.26	3.63420000	1.95600000
356.79	3.63580000	1.95500000
358.34	3.63800000	1.95350000
359.90	3.64010000	1.95100000
361.47	3.64370000	1.94840000
363.06	3.64710000	1.94750000
364.66	3.65110000	1.94600000
366.28	3.65560000	1.94500000
367.91	3.65960000	1.94590000
369.55	3.66460000	1.94670000
371.21	3.66920000	1.94810000
372.89	3.67480000	1.94980000
374.58	3.68090000	1.95050000
376.28	3.68670000	1.95150000
378.00	3.69450000	1.95230000
379.74	3.70120000	1.95420000
381.49	3.70850000	1.95530000
383.26	3.71710000	1.95670000
385.05	3.72610000	1.95910000
386.85	3.73620000	1.96020000
388.67	3.74640000	1.96230000
390.50	3.75730000	1.96550000
392.36	3.76930000	1.96690000
394.23	3.78110000	1.96960000
396.12	3.79440000	1.97160000
398.03	3.80800000	1.97390000
399.95	3.82330000	1.97420000
401.90	3.83980000	1.97530000
403.86	3.85810000	1.97620000
405.84	3.87670000	1.97650000
407.85	3.89670000	1.97700000
409.87	3.91760000	1.97790000
411.91	3.93880000	1.97710000
413.97	3.96040000	1.97660000
416.06	3.98380000	1.97520000
418.16	4.00800000	1.97400000
420.29	4.03300000	1.97120000
422.44	4.05960000	1.96780000
424.61	4.08750000	1.96380000
426.80	4.11580000	1.95830000
429.01	4.14590000	1.95140000
431.25	4.17710000	1.94190000
433.51	4.20790000	1.92940000
435.80	4.23910000	1.91440000
438.11	4.27160000	1.89770000
440.44	4.30300000	1.87920000
442.80	4.33360000	1.85940000
445.19	4.36340000	1.83760000
447.60	4.39260000	1.81570000
450.04	4.42060000	1.79270000
452.50	4.44920000	1.76860000
454.99	4.47690000	1.74320000
457.51	4.50450000	1.71650000
460.06	4.53220000	1.68840000
462.63	4.56060000	1.65900000
465.24	4.58830000	1.62810000
467.87	4.61550000	1.59480000
470.53	4.64280000	1.55830000
473.23	4.66970000	1.51910000
475.95	4.69480000	1.47630000
478.71	4.71720000	1.43000000
481.50	4.73650000	1.38020000
484.32	4.75300000	1.32730000
487.17	4.76470000	1.27240000
490.06	4.77120000	1.21650000
492.98	4.77310000	1.16040000
495.94	4.76940000	1.10430000
498.93	4.76220000	1.04900000
501.96	4.75090000	0.99610000
505.03	4.73610000	0.94520000
508.14	4.71840000	0.89848000
511.28	4.69880000	0.85475000
514.46	4.67840000	0.81373000
517.68	4.65780000	0.77599000
520.95	4.63650000	0.74050000
524.25	4.61490000	0.70779000
527.60	4.59280000	0.67753000
530.99	4.57010000	0.64999000
534.42	4.54790000	0.62367000
537.90	4.52560000	0.59925000
541.42	4.50360000	0.57727000
544.99	4.48170000	0.55719000
548.61	4.46050000	0.53826000
552.27	4.44030000	0.51990000
555.99	4.42050000	0.50209000
559.75	4.40150000	0.48472000
563.57	4.38310000	0.46875000
567.44	4.36490000	0.45368000
571.36	4.34700000	0.43935000
575.34	4.32880000	0.42553000
579.37	4.31140000	0.41301000
583.46	4.29420000	0.40038000
587.61	4.27590000	0.38919000
591.81	4.25800000	0.37815000
596.08	4.24050000	0.36739000
600.41	4.22380000	0.35638000
604.81	4.20730000	0.34651000
609.26	4.19200000	0.33765000
613.79	4.17610000	0.32987000
618.38	4.16110000	0.32200000
623.04	4.14730000	0.31527000
627.77	4.13320000	0.30922000
632.58	4.11820000	0.30459000
637.46	4.10430000	0.29830000
642.41	4.09130000	0.28998000
647.44	4.07860000	0.28234000
652.55	4.06640000	0.27460000
657.75	4.05510000	0.26753000
663.02	4.04390000	0.26003000
668.38	4.03320000	0.25495000
673.83	4.02320000	0.24987000
679.37	4.01270000	0.24721000
685.00	4.00110000	0.24531000
690.73	3.98980000	0.24158000
696.55	3.97910000	0.23701000
702.47	3.96830000	0.23472000
708.49	3.95840000	0.23187000
714.61	3.94870000	0.22518000
720.84	3.93990000	0.21896000
727.19	3.93060000	0.21449000
733.64	3.92280000	0.20910000
740.21	3.91560000	0.20377000
746.90	3.90840000	0.20103000
753.71	3.90250000	0.19660000
760.65	3.89520000	0.19355000
767.71	3.88770000	0.19344000
774.91	3.88040000	0.18945000
782.24	3.87230000	0.18633000
789.71	3.86450000	0.18341000
797.33	3.85690000	0.17966000
805.10	3.85070000	0.17602000
813.02	3.84490000	0.17078000
821.09	3.83950000	0.16417000
829.33	3.83330000	0.15923000
837.74	3.82650000	0.15474000
846.32	3.82050000	0.15148000
855.07	3.81450000	0.14598000
864.01	3.80810000	0.14370000
873.14	3.80210000	0.14065000
882.46	3.79660000	0.13840000
891.98	3.79120000	0.13781000
901.71	3.78480000	0.13383000
911.66	3.77880000	0.13012000
921.82	3.77130000	0.12895000
932.22	3.76450000	0.12630000
942.85	3.75970000	0.12644000
953.73	3.75440000	0.12438000
964.87	3.74920000	0.12236000
976.26	3.74420000	0.12037000
987.93	3.73920000	0.11843000
999.88	3.73440000	0.11651000
