;  Optical constants for GaAs
; 
;   taken from:
;
;   'Handbook of Optical Constants of Solids', Ed. by Edward D. Palik,
;   Academic Press, Inc., 1985.
;   
;    Lambda (nm)            n            k
;-----------------------------------------
103.32	0.89500000	0.79100000
114.80	0.92300000	0.88100000
123.98	0.91300000	0.97400000
137.76	0.90100000	1.13600000
154.97	0.89900000	1.43500000
177.11	1.06300000	1.83800000
187.85	1.24700000	2.04700000
196.79	1.44100000	1.98800000
199.97	1.42400000	1.97600000
206.63	1.26400000	2.47200000
206.63	1.39500000	2.04800000
208.72	1.28700000	2.52300000
210.14	1.28800000	2.55600000
212.29	1.30400000	2.59200000
213.76	1.31100000	2.62500000
215.99	1.32100000	2.67300000
217.51	1.32500000	2.71000000
219.82	1.33900000	2.77200000
221.39	1.34900000	2.81500000
223.79	1.36700000	2.88500000
225.42	1.38300000	2.93600000
227.90	1.41000000	3.01900000
229.59	1.43000000	3.07900000
232.17	1.46800000	3.18100000
233.93	1.49900000	3.25500000
236.60	1.55200000	3.38400000
238.42	1.59900000	3.48400000
241.21	1.69900000	3.66000000
243.10	1.80200000	3.79500000
245.99	2.04400000	3.99200000
247.96	2.27300000	4.08400000
250.97	2.65400000	4.10600000
253.02	2.89000000	4.04700000
256.16	3.18700000	3.89800000
258.29	3.34200000	3.77000000
261.56	3.51100000	3.57400000
263.79	3.59800000	3.45200000
267.20	3.70800000	3.28000000
269.52	3.76900000	3.16900000
273.08	3.85000000	3.01800000
275.51	3.91300000	2.91900000
279.23	4.00400000	2.71500000
281.77	4.01500000	2.56300000
285.67	3.98100000	2.36800000
288.33	3.93900000	2.26000000
292.41	3.86400000	2.13200000
295.19	3.81000000	2.06900000
299.47	3.73600000	2.00100000
302.39	3.69200000	1.96900000
306.88	3.63400000	1.93500000
309.95	3.60100000	1.92000000
314.67	3.55900000	1.90700000
317.90	3.53800000	1.90400000
322.87	3.51200000	1.90500000
326.26	3.50100000	1.90900000
331.50	3.48800000	1.92000000
335.08	3.48500000	1.93100000
340.60	3.48900000	1.95000000
344.39	3.49500000	1.96500000
350.23	3.51300000	1.99200000
354.23	3.53100000	2.01300000
356.26	3.54100000	2.02400000
358.32	3.55300000	2.03600000
360.41	3.56600000	2.04900000
362.51	3.58000000	2.06200000
364.65	3.59600000	2.07600000
366.81	3.61400000	2.09100000
368.99	3.63500000	2.10700000
371.20	3.65700000	2.12300000
373.43	3.68100000	2.14200000
375.70	3.70900000	2.16200000
377.99	3.74000000	2.18300000
380.31	3.77600000	2.20700000
382.65	3.81800000	2.23200000
385.03	3.87100000	2.26000000
387.44	3.93800000	2.28800000
389.87	4.02300000	2.30700000
392.34	4.12600000	2.30400000
394.84	4.22900000	2.27000000
397.37	4.31300000	2.21200000
399.94	4.37300000	2.14600000
402.53	4.41300000	2.08200000
405.16	4.43900000	2.02900000
407.83	4.46200000	1.98800000
410.53	4.48300000	1.96100000
413.27	4.50900000	1.94800000
416.04	4.55000000	1.95200000
418.85	4.62600000	1.96700000
421.70	4.75500000	1.96000000
424.59	4.91700000	1.88500000
427.52	5.05200000	1.72100000
430.49	5.10700000	1.52900000
433.50	5.10200000	1.35300000
436.55	5.06500000	1.20600000
439.64	5.01500000	1.08800000
442.79	4.95900000	0.99100000
445.97	4.90200000	0.91200000
449.20	4.84500000	0.84600000
452.48	4.79300000	0.78900000
455.81	4.74100000	0.73900000
459.19	4.69400000	0.69600000
462.61	4.64900000	0.65900000
466.09	4.60500000	0.62600000
469.62	4.56700000	0.59500000
473.21	4.52500000	0.56900000
476.85	4.49200000	0.53900000
480.54	4.45600000	0.51700000
484.30	4.42300000	0.49700000
488.11	4.39200000	0.47600000
491.98	4.36200000	0.45800000
495.92	4.33300000	0.44100000
499.92	4.30500000	0.42600000
503.98	4.27900000	0.41100000
508.11	4.25400000	0.39800000
512.31	4.22900000	0.38500000
516.58	4.20500000	0.37100000
520.92	4.18300000	0.35900000
525.34	4.16200000	0.34700000
529.83	4.14100000	0.33700000
534.40	4.12000000	0.32700000
539.04	4.10000000	0.32000000
543.77	4.08200000	0.30800000
548.58	4.06300000	0.30100000
553.48	4.04500000	0.29400000
558.47	4.02900000	0.28500000
563.54	4.01300000	0.27600000
568.72	3.99800000	0.26600000
573.98	3.98300000	0.25700000
579.35	3.96800000	0.25100000
584.81	3.95400000	0.24500000
590.38	3.94000000	0.24000000
596.06	3.92700000	0.23200000
601.85	3.91400000	0.22800000
607.75	3.90200000	0.22300000
613.76	3.89000000	0.21300000
619.90	3.87800000	0.21100000
626.16	3.86700000	0.20300000
632.55	3.85600000	0.19600000
639.07	3.84600000	0.18700000
645.73	3.83600000	0.18300000
652.53	3.82600000	0.17900000
659.47	3.81700000	0.17300000
666.56	3.80900000	0.17300000
673.80	3.79900000	0.16800000
681.21	3.79200000	0.15800000
688.78	3.78500000	0.15100000
696.52	3.77900000	0.15200000
704.43	3.77200000	0.13400000
712.53	3.76200000	0.12700000
720.81	3.75200000	0.11800000
729.29	3.74200000	0.11200000
737.98	3.73400000	0.10500000
746.87	3.72500000	0.10100000
755.98	3.71600000	0.09700000
765.31	3.70700000	0.09300000
774.88	3.70000000	0.09100000
784.68	3.69300000	0.08900000
794.74	3.68500000	0.08700000
805.06	3.67900000	0.08500000
815.66	3.67200000	0.08300000
826.53	3.66600000	0.08000000
885.57	3.61400000	0.00169000
918.37	3.56900000	0.00000000
953.69	3.53880000	0.00000000
991.84	3.51380000	0.00000000
1033.17	3.49200000	0.00000000
1078.09	3.47240000	0.00000000
1127.09	3.45460000	0.00000000
1180.76	3.43830000	0.00000000
1239.80	3.42320000	0.00000000
1305.05	3.40940000	0.00000000
1377.56	3.39650000	0.00000000
1458.59	3.38470000	0.00000000
1549.75	3.37370000	0.00000000
1653.07	3.36360000	0.00000000
1771.14	3.35430000	0.00000000
1907.38	3.34570000	0.00000000
2066.33	3.33780000	0.00000000
2254.18	3.33060000	0.00000000
2479.60	3.32400000	0.00000000
