; From SOPRA S.A. http://www.sopra-sa.com/indices.htm
; Filename    Symbol               Range (nm)     Description
; GAAS249T    GaAs                275      999    Gallium Arsenide (Temp: 249 C)
; lambda/nm       n         k
275.83	3.73960000	3.13040000
276.75	3.76600000	3.08180000
277.68	3.78280000	3.04200000
278.62	3.80900000	3.00280000
279.56	3.82720000	2.96160000
280.51	3.85230000	2.91520000
281.46	3.86300000	2.87140000
282.43	3.87330000	2.82930000
283.39	3.87390000	2.78460000
284.37	3.88430000	2.73280000
285.35	3.88810000	2.69150000
286.34	3.89210000	2.64480000
287.34	3.89650000	2.60190000
288.34	3.89430000	2.56490000
289.35	3.88650000	2.52490000
290.36	3.88320000	2.48360000
291.39	3.87710000	2.45070000
292.42	3.86410000	2.41970000
293.46	3.85200000	2.38580000
294.50	3.84650000	2.35340000
295.55	3.83660000	2.32590000
296.62	3.82640000	2.29750000
297.68	3.81940000	2.26740000
298.76	3.80630000	2.24000000
299.84	3.79400000	2.21320000
300.93	3.78740000	2.18670000
302.03	3.77530000	2.16490000
303.14	3.76190000	2.14240000
304.26	3.75070000	2.12400000
305.38	3.74310000	2.11040000
306.51	3.73220000	2.09950000
307.66	3.72260000	2.08970000
308.80	3.71010000	2.07860000
309.96	3.70000000	2.06910000
311.13	3.68900000	2.05790000
312.31	3.67980000	2.04670000
313.49	3.66970000	2.03510000
314.68	3.66110000	2.02280000
315.89	3.65480000	2.01700000
317.10	3.64670000	2.01200000
318.32	3.63900000	2.00740000
319.55	3.63310000	2.00220000
320.79	3.62590000	1.99580000
322.04	3.61990000	1.98880000
323.30	3.60920000	1.98230000
324.57	3.60310000	1.97810000
325.85	3.59250000	1.97340000
327.14	3.58750000	1.96800000
328.44	3.57850000	1.96980000
329.75	3.57090000	1.97230000
331.07	3.56870000	1.97060000
332.40	3.57050000	1.97170000
333.74	3.57240000	1.97250000
335.10	3.57370000	1.97270000
336.46	3.57400000	1.97140000
337.83	3.57640000	1.96830000
339.22	3.57310000	1.96380000
340.62	3.57370000	1.95860000
342.03	3.56870000	1.95840000
343.45	3.56780000	1.95820000
344.88	3.56810000	1.95520000
346.33	3.57020000	1.95860000
347.78	3.57140000	1.96190000
349.25	3.57430000	1.96450000
350.74	3.57760000	1.96540000
352.23	3.58190000	1.96810000
353.74	3.58580000	1.97170000
355.26	3.58930000	1.97500000
356.79	3.59460000	1.97960000
358.34	3.59990000	1.98520000
359.90	3.60520000	1.99000000
361.47	3.61050000	1.99650000
363.06	3.61670000	2.00270000
364.66	3.62430000	2.00810000
366.28	3.63290000	2.01310000
367.91	3.64190000	2.01920000
369.55	3.65030000	2.02550000
371.21	3.66030000	2.03080000
372.89	3.67180000	2.03680000
374.58	3.68250000	2.04510000
376.28	3.69510000	2.05240000
378.00	3.70890000	2.06020000
379.74	3.72390000	2.06900000
381.49	3.74160000	2.07690000
383.26	3.76030000	2.08470000
385.05	3.78030000	2.09310000
386.85	3.80140000	2.10230000
388.67	3.82450000	2.11110000
390.50	3.84950000	2.12050000
392.36	3.87590000	2.13070000
394.23	3.90690000	2.14000000
396.12	3.94020000	2.14900000
398.03	3.97790000	2.15810000
399.95	4.01950000	2.16370000
401.90	4.06370000	2.16590000
403.86	4.11150000	2.16420000
405.84	4.16060000	2.15740000
407.85	4.20970000	2.14570000
409.87	4.25830000	2.12770000
411.91	4.30350000	2.10490000
413.97	4.34600000	2.07880000
416.06	4.38570000	2.04910000
418.16	4.42270000	2.01860000
420.29	4.45610000	1.98790000
422.44	4.48650000	1.95930000
424.61	4.51750000	1.93250000
426.80	4.54870000	1.90780000
429.01	4.58340000	1.88580000
431.25	4.62320000	1.86250000
433.51	4.66810000	1.83840000
435.80	4.71790000	1.80930000
438.11	4.77390000	1.76910000
440.44	4.83110000	1.71820000
442.80	4.88500000	1.65500000
445.19	4.93310000	1.58020000
447.60	4.96960000	1.49600000
450.04	4.99200000	1.40800000
452.50	5.00090000	1.31900000
454.99	4.99820000	1.23280000
457.51	4.98550000	1.15330000
460.06	4.96430000	1.08160000
462.63	4.93820000	1.01490000
465.24	4.90920000	0.95546000
467.87	4.87830000	0.90140000
470.53	4.84710000	0.85138000
473.23	4.81460000	0.80701000
475.95	4.78130000	0.76665000
478.71	4.74870000	0.72956000
481.50	4.71660000	0.69578000
484.32	4.68530000	0.66392000
487.17	4.65470000	0.63595000
490.06	4.62470000	0.60828000
492.98	4.59580000	0.58361000
495.94	4.56610000	0.56026000
498.93	4.53850000	0.53761000
501.96	4.51110000	0.51755000
505.03	4.48350000	0.50008000
508.14	4.45720000	0.48367000
511.28	4.43150000	0.46817000
514.46	4.40710000	0.45362000
517.68	4.38410000	0.43840000
520.95	4.36180000	0.42467000
524.25	4.34050000	0.41157000
527.60	4.31920000	0.39916000
530.99	4.29930000	0.38849000
534.42	4.27950000	0.37770000
537.90	4.26050000	0.36779000
541.42	4.24190000	0.35883000
544.99	4.22350000	0.35118000
548.61	4.20570000	0.34425000
552.27	4.18930000	0.33485000
555.99	4.17300000	0.32843000
559.75	4.15720000	0.32141000
563.57	4.14180000	0.31480000
567.44	4.12660000	0.30867000
571.36	4.11210000	0.30090000
575.34	4.09810000	0.29335000
579.37	4.08410000	0.28589000
583.46	4.07000000	0.28039000
587.61	4.05660000	0.27472000
591.81	4.04310000	0.26965000
596.08	4.02960000	0.26702000
600.41	4.01630000	0.26398000
604.81	4.00340000	0.26000000
609.26	3.99080000	0.25659000
613.79	3.97880000	0.25055000
618.38	3.96720000	0.24586000
623.04	3.95610000	0.24058000
627.77	3.94570000	0.23435000
632.58	3.93530000	0.22851000
637.46	3.92510000	0.22454000
642.41	3.91540000	0.22188000
647.44	3.90640000	0.21901000
652.55	3.89770000	0.21626000
657.75	3.88890000	0.21406000
663.02	3.88080000	0.20887000
668.38	3.87300000	0.20729000
673.83	3.86540000	0.20337000
679.37	3.85800000	0.19875000
685.00	3.85060000	0.19414000
690.73	3.84320000	0.19174000
696.55	3.83610000	0.18776000
702.47	3.82890000	0.18392000
708.49	3.82220000	0.18123000
714.61	3.81520000	0.17990000
720.84	3.80910000	0.17863000
727.19	3.80270000	0.17810000
733.64	3.79750000	0.17374000
740.21	3.79280000	0.16760000
746.90	3.78660000	0.15956000
753.71	3.78040000	0.15411000
760.65	3.77430000	0.14713000
767.71	3.76670000	0.13893000
774.91	3.75970000	0.13599000
782.24	3.75260000	0.13728000
789.71	3.74470000	0.13922000
797.33	3.73690000	0.13912000
805.10	3.72990000	0.13496000
813.02	3.72360000	0.13114000
821.09	3.71710000	0.13058000
829.33	3.70970000	0.12648000
837.74	3.70460000	0.12253000
846.32	3.70060000	0.11842000
855.07	3.69520000	0.11436000
864.01	3.69070000	0.11212000
873.14	3.68690000	0.10938000
882.46	3.68450000	0.10397000
891.98	3.68250000	0.10296000
901.71	3.68130000	0.10838000
911.66	3.68250000	0.11110000
921.82	3.67740000	0.09959900
932.22	3.67180000	0.09127600
942.85	3.66460000	0.08385200
953.73	3.66100000	0.08296400
964.87	3.65740000	0.08209300
976.26	3.65390000	0.08126800
987.93	3.65040000	0.08046200
999.88	3.64690000	0.07967100
