; From SOPRA S.A. http://www.sopra-sa.com/indices.htm
; Filename    Symbol               Range (nm)     Description
; GAAS081T    GaAs                275      999    Gallium Arsenide (Temp: 81 C)
; lambda/nm       n         k
275.83	3.90390000	2.98980000
276.75	3.92350000	2.94710000
277.68	3.94140000	2.92030000
278.62	3.96010000	2.87380000
279.56	3.97380000	2.82840000
280.51	3.99390000	2.77980000
281.46	3.99280000	2.72520000
282.43	3.99480000	2.67840000
283.39	3.99530000	2.62490000
284.37	3.99420000	2.57480000
285.35	3.98480000	2.51820000
286.34	3.96830000	2.48230000
287.34	3.95690000	2.43510000
288.34	3.94750000	2.39470000
289.35	3.94140000	2.36300000
290.36	3.93140000	2.33210000
291.39	3.90830000	2.29930000
292.42	3.89240000	2.27270000
293.46	3.87400000	2.24720000
294.50	3.85830000	2.22050000
295.55	3.83700000	2.19000000
296.62	3.81580000	2.16710000
297.68	3.80230000	2.14000000
298.76	3.78980000	2.11760000
299.84	3.77530000	2.09940000
300.93	3.75780000	2.08300000
302.03	3.74060000	2.07300000
303.14	3.72750000	2.06130000
304.26	3.70930000	2.05020000
305.38	3.69730000	2.04000000
306.51	3.67980000	2.02830000
307.66	3.67000000	2.01830000
308.80	3.66060000	2.00690000
309.96	3.64690000	1.99580000
311.13	3.63520000	1.98680000
312.31	3.62490000	1.98250000
313.49	3.61420000	1.98200000
314.68	3.60340000	1.98010000
315.89	3.59260000	1.97890000
317.10	3.58380000	1.97660000
318.32	3.57540000	1.97450000
319.55	3.57270000	1.96980000
320.79	3.56540000	1.96340000
322.04	3.55760000	1.95690000
323.30	3.55180000	1.95260000
324.57	3.54800000	1.95430000
325.85	3.54630000	1.95920000
327.14	3.54340000	1.96570000
328.44	3.54010000	1.96730000
329.75	3.53370000	1.96700000
331.07	3.52980000	1.96770000
332.40	3.52510000	1.96920000
333.74	3.51680000	1.97280000
335.10	3.51260000	1.97450000
336.46	3.51060000	1.97610000
337.83	3.51300000	1.97910000
339.22	3.51960000	1.98210000
340.62	3.52500000	1.98480000
342.03	3.52950000	1.98380000
343.45	3.53220000	1.98430000
344.88	3.53650000	1.98710000
346.33	3.53850000	1.99400000
347.78	3.54000000	2.00330000
349.25	3.54320000	2.00980000
350.74	3.54840000	2.01530000
352.23	3.55400000	2.02080000
353.74	3.56100000	2.02730000
355.26	3.56750000	2.03470000
356.79	3.57500000	2.04140000
358.34	3.58160000	2.04990000
359.90	3.58970000	2.05750000
361.47	3.59790000	2.06780000
363.06	3.60670000	2.07820000
364.66	3.61720000	2.08770000
366.28	3.62930000	2.09750000
367.91	3.64220000	2.10840000
369.55	3.65630000	2.11980000
371.21	3.67130000	2.13180000
372.89	3.68840000	2.14290000
374.58	3.70410000	2.15580000
376.28	3.72220000	2.16880000
378.00	3.74330000	2.18250000
379.74	3.76620000	2.19730000
381.49	3.79280000	2.21260000
383.26	3.82200000	2.22910000
385.05	3.85510000	2.24680000
386.85	3.89280000	2.26510000
388.67	3.93760000	2.28260000
390.50	3.98950000	2.29810000
392.36	4.04670000	2.31010000
394.23	4.11200000	2.31400000
396.12	4.18140000	2.30570000
398.03	4.25060000	2.28770000
399.95	4.31480000	2.25820000
401.90	4.37130000	2.21990000
403.86	4.41720000	2.17780000
405.84	4.45280000	2.13550000
407.85	4.48180000	2.09590000
409.87	4.50620000	2.06180000
411.91	4.52690000	2.03350000
413.97	4.54900000	2.01340000
416.06	4.57850000	2.00050000
418.16	4.61690000	1.99420000
420.29	4.66850000	1.99070000
422.44	4.73800000	1.98090000
424.61	4.82290000	1.95660000
426.80	4.91810000	1.90940000
429.01	5.01290000	1.83240000
431.25	5.09490000	1.72750000
433.51	5.14950000	1.60570000
435.80	5.17720000	1.47860000
438.11	5.17820000	1.35290000
440.44	5.15870000	1.24070000
442.80	5.12720000	1.14560000
445.19	5.09130000	1.06300000
447.60	5.05130000	0.99249000
450.04	5.01050000	0.93302000
452.50	4.96900000	0.87897000
454.99	4.92910000	0.83040000
457.51	4.88900000	0.78792000
460.06	4.84980000	0.74956000
462.63	4.81140000	0.71195000
465.24	4.77430000	0.67969000
467.87	4.73920000	0.65042000
470.53	4.70590000	0.62247000
473.23	4.67310000	0.59801000
475.95	4.64180000	0.57549000
478.71	4.61050000	0.55362000
481.50	4.58070000	0.53342000
484.32	4.55020000	0.51543000
487.17	4.52100000	0.49796000
490.06	4.49360000	0.47979000
492.98	4.46520000	0.46651000
495.94	4.43850000	0.45291000
498.93	4.41290000	0.43840000
501.96	4.38880000	0.42493000
505.03	4.36550000	0.41074000
508.14	4.34270000	0.39899000
511.28	4.32110000	0.38722000
514.46	4.29990000	0.37561000
517.68	4.27950000	0.36390000
520.95	4.25960000	0.35319000
524.25	4.24040000	0.34485000
527.60	4.22140000	0.33839000
530.99	4.20310000	0.32951000
534.42	4.18570000	0.32173000
537.90	4.16840000	0.31419000
541.42	4.15140000	0.30830000
544.99	4.13490000	0.30252000
548.61	4.11890000	0.29684000
552.27	4.10340000	0.29224000
555.99	4.08840000	0.28725000
559.75	4.07430000	0.28310000
563.57	4.06040000	0.27917000
567.44	4.04690000	0.27386000
571.36	4.03370000	0.26880000
575.34	4.02110000	0.26288000
579.37	4.00860000	0.25811000
583.46	3.99620000	0.25246000
587.61	3.98400000	0.24660000
591.81	3.97220000	0.24151000
596.08	3.96070000	0.23705000
600.41	3.94910000	0.23323000
604.81	3.93840000	0.22818000
609.26	3.92750000	0.22421000
613.79	3.91650000	0.22097000
618.38	3.90660000	0.21618000
623.04	3.89670000	0.21379000
627.77	3.88710000	0.20923000
632.58	3.87740000	0.20616000
637.46	3.86800000	0.20300000
642.41	3.85910000	0.20107000
647.44	3.84980000	0.19880000
652.55	3.84210000	0.19558000
657.75	3.83430000	0.19151000
663.02	3.82720000	0.18862000
668.38	3.82070000	0.18524000
673.83	3.81460000	0.18253000
679.37	3.80900000	0.17779000
685.00	3.80310000	0.17432000
690.73	3.79720000	0.17023000
696.55	3.79200000	0.16542000
702.47	3.78670000	0.16116000
708.49	3.78140000	0.15645000
714.61	3.77470000	0.15103000
720.84	3.76760000	0.14397000
727.19	3.76000000	0.13815000
733.64	3.75090000	0.12945000
740.21	3.74250000	0.12214000
746.90	3.73480000	0.12069000
753.71	3.72770000	0.12185000
760.65	3.71900000	0.11571000
767.71	3.71210000	0.11822000
774.91	3.70410000	0.11664000
782.24	3.69780000	0.11556000
789.71	3.69290000	0.11295000
797.33	3.68790000	0.11145000
805.10	3.68360000	0.10305000
813.02	3.67920000	0.10388000
821.09	3.68280000	0.11551000
829.33	3.66880000	0.10871000
837.74	3.65840000	0.09354500
846.32	3.65220000	0.08792500
855.07	3.65090000	0.07304300
864.01	3.65260000	0.06272600
873.14	3.65530000	0.05230700
882.46	3.65400000	0.05062500
891.98	3.64980000	0.05306800
901.71	3.63840000	0.06897300
911.66	3.62710000	0.09361900
921.82	3.60330000	0.09844000
932.22	3.58250000	0.11396000
942.85	3.56700000	0.13092000
953.73	3.56190000	0.12834000
964.87	3.55680000	0.12580000
976.26	3.55190000	0.12332000
987.93	3.54720000	0.12088000
999.88	3.54250000	0.11849000
