; From SOPRA S.A. http://www.sopra-sa.com/indices.htm
; Filename    Symbol               Range (nm)     Description
; GAAS634T    GaAs                275      999    Gallium Arsenide (Temp: 634 C)
; lambda/nm       n         k
275.83	3.17910000	3.29140000
276.75	3.22110000	3.27460000
277.68	3.25610000	3.25640000
278.62	3.29480000	3.23550000
279.56	3.34370000	3.21120000
280.51	3.38430000	3.17200000
281.46	3.43320000	3.13220000
282.43	3.45980000	3.10170000
283.39	3.47390000	3.07140000
284.37	3.49610000	3.03080000
285.35	3.53050000	2.99510000
286.34	3.55010000	2.96140000
287.34	3.56910000	2.93190000
288.34	3.58860000	2.90350000
289.35	3.61580000	2.86590000
290.36	3.63590000	2.82160000
291.39	3.65800000	2.78480000
292.42	3.66470000	2.74840000
293.46	3.67200000	2.71560000
294.50	3.68240000	2.68420000
295.55	3.69490000	2.64700000
296.62	3.69210000	2.61520000
297.68	3.69340000	2.58450000
298.76	3.68890000	2.55500000
299.84	3.69560000	2.52370000
300.93	3.69640000	2.49380000
302.03	3.69920000	2.47130000
303.14	3.69960000	2.44640000
304.26	3.70790000	2.42460000
305.38	3.71340000	2.40250000
306.51	3.71340000	2.37730000
307.66	3.71090000	2.35500000
308.80	3.70670000	2.33160000
309.96	3.70030000	2.30420000
311.13	3.69530000	2.28150000
312.31	3.68450000	2.25660000
313.49	3.68080000	2.23300000
314.68	3.67880000	2.20980000
315.89	3.68170000	2.19500000
317.10	3.68000000	2.18340000
318.32	3.67440000	2.17350000
319.55	3.67020000	2.16380000
320.79	3.66660000	2.15350000
322.04	3.66410000	2.13640000
323.30	3.65800000	2.11910000
324.57	3.64820000	2.10470000
325.85	3.64150000	2.08970000
327.14	3.64280000	2.07380000
328.44	3.63910000	2.06840000
329.75	3.63540000	2.05620000
331.07	3.63230000	2.04730000
332.40	3.63220000	2.03980000
333.74	3.63050000	2.03340000
335.10	3.62910000	2.02520000
336.46	3.62680000	2.01640000
337.83	3.62360000	2.01290000
339.22	3.62370000	2.00580000
340.62	3.62890000	1.99910000
342.03	3.62700000	1.99450000
343.45	3.62760000	1.98360000
344.88	3.62810000	1.97770000
346.33	3.62880000	1.97240000
347.78	3.62800000	1.96900000
349.25	3.62740000	1.96640000
350.74	3.62820000	1.96170000
352.23	3.63000000	1.95920000
353.74	3.63080000	1.95590000
355.26	3.63090000	1.95510000
356.79	3.63050000	1.95350000
358.34	3.63040000	1.95100000
359.90	3.63320000	1.94930000
361.47	3.63570000	1.94860000
363.06	3.63930000	1.94900000
364.66	3.64260000	1.94870000
366.28	3.64770000	1.94800000
367.91	3.65320000	1.94640000
369.55	3.65820000	1.94610000
371.21	3.66260000	1.94610000
372.89	3.66580000	1.94710000
374.58	3.67100000	1.94660000
376.28	3.67720000	1.94520000
378.00	3.68310000	1.94640000
379.74	3.69080000	1.94800000
381.49	3.69870000	1.94940000
383.26	3.70740000	1.94940000
385.05	3.71670000	1.94980000
386.85	3.72620000	1.95210000
388.67	3.73590000	1.95320000
390.50	3.74610000	1.95550000
392.36	3.75690000	1.95700000
394.23	3.76810000	1.95750000
396.12	3.78100000	1.95930000
398.03	3.79470000	1.96170000
399.95	3.80960000	1.96480000
401.90	3.82540000	1.96580000
403.86	3.84200000	1.96680000
405.84	3.85970000	1.96730000
407.85	3.87760000	1.96680000
409.87	3.89670000	1.96690000
411.91	3.91630000	1.96630000
413.97	3.93650000	1.96550000
416.06	3.95900000	1.96510000
418.16	3.98140000	1.96510000
420.29	4.00530000	1.96430000
422.44	4.03010000	1.96200000
424.61	4.05560000	1.95700000
426.80	4.08280000	1.95170000
429.01	4.11010000	1.94440000
431.25	4.13970000	1.93530000
433.51	4.16910000	1.92380000
435.80	4.19940000	1.91090000
438.11	4.23100000	1.89650000
440.44	4.26140000	1.88050000
442.80	4.29120000	1.86400000
445.19	4.32040000	1.84590000
447.60	4.34900000	1.82560000
450.04	4.37780000	1.80600000
452.50	4.40640000	1.78430000
454.99	4.43370000	1.76080000
457.51	4.46060000	1.73640000
460.06	4.48840000	1.70970000
462.63	4.51580000	1.68130000
465.24	4.54180000	1.65220000
467.87	4.56770000	1.62100000
470.53	4.59440000	1.58730000
473.23	4.62000000	1.55190000
475.95	4.64610000	1.51330000
478.71	4.67100000	1.47190000
481.50	4.69250000	1.42690000
484.32	4.71120000	1.37880000
487.17	4.72760000	1.32700000
490.06	4.74070000	1.27400000
492.98	4.74850000	1.22140000
495.94	4.75090000	1.16630000
498.93	4.74910000	1.11320000
501.96	4.74240000	1.06110000
505.03	4.73320000	1.00900000
508.14	4.71920000	0.96121000
511.28	4.70280000	0.91494000
514.46	4.68340000	0.87234000
517.68	4.66500000	0.83260000
520.95	4.64610000	0.79481000
524.25	4.62530000	0.76082000
527.60	4.60350000	0.72787000
530.99	4.58150000	0.69878000
534.42	4.56020000	0.66968000
537.90	4.53880000	0.64352000
541.42	4.51820000	0.61909000
544.99	4.49880000	0.59425000
548.61	4.47830000	0.57234000
552.27	4.45880000	0.55289000
555.99	4.43810000	0.53357000
559.75	4.41800000	0.51571000
563.57	4.39870000	0.49875000
567.44	4.38030000	0.48275000
571.36	4.36300000	0.46611000
575.34	4.34580000	0.45181000
579.37	4.32900000	0.43791000
583.46	4.31110000	0.42475000
587.61	4.29290000	0.41380000
591.81	4.27490000	0.40431000
596.08	4.25600000	0.39426000
600.41	4.23850000	0.38402000
604.81	4.22170000	0.37427000
609.26	4.20520000	0.36347000
613.79	4.19010000	0.35064000
618.38	4.17430000	0.34038000
623.04	4.15940000	0.33030000
627.77	4.14440000	0.32133000
632.58	4.13090000	0.31292000
637.46	4.11870000	0.30358000
642.41	4.10590000	0.29591000
647.44	4.09330000	0.29202000
652.55	4.08100000	0.28828000
657.75	4.06780000	0.28433000
663.02	4.05560000	0.27813000
668.38	4.04320000	0.27401000
673.83	4.03150000	0.26952000
679.37	4.01990000	0.26296000
685.00	4.01020000	0.25777000
690.73	4.00190000	0.25105000
696.55	3.99250000	0.24489000
702.47	3.98350000	0.24023000
708.49	3.97450000	0.23655000
714.61	3.96480000	0.23279000
720.84	3.95470000	0.22874000
727.19	3.94470000	0.22900000
733.64	3.93430000	0.22570000
740.21	3.92430000	0.22371000
746.90	3.91660000	0.22205000
753.71	3.90920000	0.22006000
760.65	3.90150000	0.21659000
767.71	3.89370000	0.21447000
774.91	3.88530000	0.21226000
782.24	3.87850000	0.20662000
789.71	3.87070000	0.20104000
797.33	3.86420000	0.19316000
805.10	3.85720000	0.18438000
813.02	3.85000000	0.18029000
821.09	3.84390000	0.17666000
829.33	3.83930000	0.17472000
837.74	3.83500000	0.17020000
846.32	3.82950000	0.16529000
855.07	3.82390000	0.15851000
864.01	3.81890000	0.15129000
873.14	3.81280000	0.14564000
882.46	3.80610000	0.13900000
891.98	3.79850000	0.13593000
901.71	3.79220000	0.13477000
911.66	3.78520000	0.13502000
921.82	3.77920000	0.13509000
932.22	3.77350000	0.13121000
942.85	3.76890000	0.13002000
953.73	3.74360000	0.13385000
964.87	3.73870000	0.13095000
976.26	3.73400000	0.12812000
987.93	3.72930000	0.12533000
999.88	3.72480000	0.12261000
