; From SOPRA S.A. http://www.sopra-sa.com/indices.htm
; Filename    Symbol               Range (nm)     Description
; GAAS546T    GaAs                275      999    Gallium Arsenide (Temp: 546 C)
; lambda/nm       n         k
275.83	3.37040000	3.30220000
276.75	3.40870000	3.27240000
277.68	3.43680000	3.23920000
278.62	3.46660000	3.20950000
279.56	3.49000000	3.18830000
280.51	3.51580000	3.14930000
281.46	3.54680000	3.10780000
282.43	3.57280000	3.07150000
283.39	3.59680000	3.02640000
284.37	3.62390000	2.98810000
285.35	3.64800000	2.94920000
286.34	3.66890000	2.91280000
287.34	3.68530000	2.88070000
288.34	3.69860000	2.84370000
289.35	3.70250000	2.81150000
290.36	3.71120000	2.77230000
291.39	3.71790000	2.73130000
292.42	3.72040000	2.68760000
293.46	3.72610000	2.64660000
294.50	3.72960000	2.60840000
295.55	3.73180000	2.57300000
296.62	3.73110000	2.54050000
297.68	3.73800000	2.51970000
298.76	3.73990000	2.49670000
299.84	3.73990000	2.47480000
300.93	3.74200000	2.45060000
302.03	3.74360000	2.42640000
303.14	3.74040000	2.40000000
304.26	3.73760000	2.37240000
305.38	3.73280000	2.34580000
306.51	3.72570000	2.31640000
307.66	3.71880000	2.29250000
308.80	3.71760000	2.27590000
309.96	3.71090000	2.25610000
311.13	3.70640000	2.23740000
312.31	3.70390000	2.21730000
313.49	3.69820000	2.20220000
314.68	3.69140000	2.18630000
315.89	3.68790000	2.17410000
317.10	3.68170000	2.15880000
318.32	3.67270000	2.14450000
319.55	3.66260000	2.13000000
320.79	3.65470000	2.12030000
322.04	3.64870000	2.10930000
323.30	3.64830000	2.09530000
324.57	3.64430000	2.08350000
325.85	3.63950000	2.07630000
327.14	3.64030000	2.06870000
328.44	3.64320000	2.06380000
329.75	3.64540000	2.05700000
331.07	3.64600000	2.05140000
332.40	3.64420000	2.04120000
333.74	3.64330000	2.03460000
335.10	3.64150000	2.02470000
336.46	3.63830000	2.01210000
337.83	3.63100000	2.00230000
339.22	3.62430000	1.99480000
340.62	3.62050000	1.98710000
342.03	3.61680000	1.98270000
343.45	3.61570000	1.97870000
344.88	3.61340000	1.97540000
346.33	3.61130000	1.97170000
347.78	3.61050000	1.97030000
349.25	3.61010000	1.96980000
350.74	3.61020000	1.96910000
352.23	3.61340000	1.96710000
353.74	3.61480000	1.96600000
355.26	3.61800000	1.96320000
356.79	3.62050000	1.96240000
358.34	3.62250000	1.96090000
359.90	3.62500000	1.95990000
361.47	3.62680000	1.95850000
363.06	3.62900000	1.95840000
364.66	3.63200000	1.95930000
366.28	3.63610000	1.96000000
367.91	3.64210000	1.96110000
369.55	3.64710000	1.96190000
371.21	3.65440000	1.96220000
372.89	3.66050000	1.96410000
374.58	3.66880000	1.96470000
376.28	3.67690000	1.96600000
378.00	3.68520000	1.96680000
379.74	3.69360000	1.96900000
381.49	3.70290000	1.97100000
383.26	3.71350000	1.97320000
385.05	3.72410000	1.97720000
386.85	3.73520000	1.97930000
388.67	3.74690000	1.98190000
390.50	3.75930000	1.98480000
392.36	3.77340000	1.98700000
394.23	3.78730000	1.98840000
396.12	3.80320000	1.98970000
398.03	3.81900000	1.99260000
399.95	3.83680000	1.99650000
401.90	3.85610000	1.99850000
403.86	3.87530000	2.00150000
405.84	3.89680000	2.00220000
407.85	3.91900000	2.00300000
409.87	3.94220000	2.00420000
411.91	3.96670000	2.00390000
413.97	3.99130000	2.00230000
416.06	4.01780000	2.00080000
418.16	4.04540000	1.99980000
420.29	4.07550000	1.99780000
422.44	4.10780000	1.99190000
424.61	4.13970000	1.98470000
426.80	4.17270000	1.97420000
429.01	4.20670000	1.96170000
431.25	4.23980000	1.94690000
433.51	4.27190000	1.93090000
435.80	4.30390000	1.91280000
438.11	4.33700000	1.89220000
440.44	4.36840000	1.87020000
442.80	4.39970000	1.84680000
445.19	4.43070000	1.82200000
447.60	4.45850000	1.79640000
450.04	4.48680000	1.77010000
452.50	4.51640000	1.74280000
454.99	4.54460000	1.71530000
457.51	4.57460000	1.68560000
460.06	4.60530000	1.65410000
462.63	4.63730000	1.61820000
465.24	4.66790000	1.58060000
467.87	4.69790000	1.53960000
470.53	4.72550000	1.49370000
473.23	4.74800000	1.44500000
475.95	4.76970000	1.39170000
478.71	4.78330000	1.33670000
481.50	4.79240000	1.27980000
484.32	4.79710000	1.22150000
487.17	4.79690000	1.16330000
490.06	4.79100000	1.10530000
492.98	4.78090000	1.04930000
495.94	4.76660000	0.99457000
498.93	4.74940000	0.94247000
501.96	4.72980000	0.89420000
505.03	4.70850000	0.84914000
508.14	4.68480000	0.80825000
511.28	4.66250000	0.77049000
514.46	4.63990000	0.73717000
517.68	4.61470000	0.70605000
520.95	4.59090000	0.67692000
524.25	4.56740000	0.64991000
527.60	4.54330000	0.62437000
530.99	4.52020000	0.60086000
534.42	4.49670000	0.57945000
537.90	4.47370000	0.55952000
541.42	4.45240000	0.54002000
544.99	4.43110000	0.52333000
548.61	4.41040000	0.50784000
552.27	4.39020000	0.49236000
555.99	4.37230000	0.47740000
559.75	4.35410000	0.46289000
563.57	4.33580000	0.44967000
567.44	4.31810000	0.43671000
571.36	4.29980000	0.42629000
575.34	4.28220000	0.41570000
579.37	4.26440000	0.40657000
583.46	4.24650000	0.39728000
587.61	4.22950000	0.38773000
591.81	4.21280000	0.37749000
596.08	4.19610000	0.36811000
600.41	4.17960000	0.35913000
604.81	4.16450000	0.35063000
609.26	4.14990000	0.34168000
613.79	4.13500000	0.33386000
618.38	4.12120000	0.32640000
623.04	4.10700000	0.31998000
627.77	4.09320000	0.31296000
632.58	4.08060000	0.30619000
637.46	4.06720000	0.29907000
642.41	4.05440000	0.29331000
647.44	4.04200000	0.28905000
652.55	4.03050000	0.28407000
657.75	4.01900000	0.27747000
663.02	4.00750000	0.27503000
668.38	3.99650000	0.27068000
673.83	3.98530000	0.26798000
679.37	3.97540000	0.26463000
685.00	3.96570000	0.26167000
690.73	3.95680000	0.25805000
696.55	3.94780000	0.25571000
702.47	3.93810000	0.25169000
708.49	3.92850000	0.24835000
714.61	3.91830000	0.24428000
720.84	3.90970000	0.24003000
727.19	3.90110000	0.23332000
733.64	3.89380000	0.22797000
740.21	3.88660000	0.22313000
746.90	3.88000000	0.21546000
753.71	3.87520000	0.21097000
760.65	3.86940000	0.21109000
767.71	3.86260000	0.21101000
774.91	3.85510000	0.21297000
782.24	3.84690000	0.21288000
789.71	3.84030000	0.21073000
797.33	3.83280000	0.20658000
805.10	3.82660000	0.19930000
813.02	3.82020000	0.19301000
821.09	3.81370000	0.18851000
829.33	3.80630000	0.18666000
837.74	3.79540000	0.18108000
846.32	3.78540000	0.17836000
855.07	3.77730000	0.17334000
864.01	3.77040000	0.16873000
873.14	3.76580000	0.16445000
882.46	3.76030000	0.15973000
891.98	3.75800000	0.15950000
901.71	3.75470000	0.16121000
911.66	3.74940000	0.16144000
921.82	3.74470000	0.16167000
932.22	3.73860000	0.15953000
942.85	3.73360000	0.16158000
953.73	3.73620000	0.15821000
964.87	3.73030000	0.15603000
976.26	3.72460000	0.15385000
987.93	3.71890000	0.15169000
999.88	3.71330000	0.14953000
