; From SOPRA S.A. http://www.sopra-sa.com/indices.htm
; Filename    Symbol               Range (nm)     Description
; GAAS175T    GaAs                275      999    Gallium Arsenide (Temp: 175 C)
; lambda/nm       n         k
275.83	3.82130000	3.09740000
276.75	3.84160000	3.06200000
277.68	3.85960000	3.02080000
278.62	3.88380000	2.98180000
279.56	3.89130000	2.92590000
280.51	3.90660000	2.87390000
281.46	3.90260000	2.81910000
282.43	3.91210000	2.76150000
283.39	3.92190000	2.70410000
284.37	3.93080000	2.65940000
285.35	3.93510000	2.61500000
286.34	3.93380000	2.57710000
287.34	3.93120000	2.53440000
288.34	3.93070000	2.49850000
289.35	3.92120000	2.45950000
290.36	3.90610000	2.42740000
291.39	3.89280000	2.38930000
292.42	3.88170000	2.35250000
293.46	3.87400000	2.32060000
294.50	3.85850000	2.29180000
295.55	3.84200000	2.26320000
296.62	3.82820000	2.23340000
297.68	3.81560000	2.20920000
298.76	3.80450000	2.18600000
299.84	3.79080000	2.16580000
300.93	3.77420000	2.14640000
302.03	3.76400000	2.13080000
303.14	3.75000000	2.11640000
304.26	3.74100000	2.10770000
305.38	3.72580000	2.09260000
306.51	3.70970000	2.07820000
307.66	3.69860000	2.06380000
308.80	3.68600000	2.05230000
309.96	3.67410000	2.04120000
311.13	3.66200000	2.03000000
312.31	3.65030000	2.01830000
313.49	3.64360000	2.01390000
314.68	3.63210000	2.00300000
315.89	3.62560000	1.99660000
317.10	3.61640000	1.98710000
318.32	3.61180000	1.98180000
319.55	3.60770000	1.98090000
320.79	3.60050000	1.97680000
322.04	3.59660000	1.97590000
323.30	3.59090000	1.97380000
324.57	3.58350000	1.97110000
325.85	3.57850000	1.97550000
327.14	3.56640000	1.97310000
328.44	3.55860000	1.97230000
329.75	3.55240000	1.96970000
331.07	3.55350000	1.96730000
332.40	3.55060000	1.96850000
333.74	3.54610000	1.96250000
335.10	3.54610000	1.95950000
336.46	3.54450000	1.95410000
337.83	3.54300000	1.95270000
339.22	3.54440000	1.95770000
340.62	3.54370000	1.95970000
342.03	3.54580000	1.96130000
343.45	3.55000000	1.96280000
344.88	3.55540000	1.96610000
346.33	3.55730000	1.97290000
347.78	3.55880000	1.97660000
349.25	3.56220000	1.98160000
350.74	3.56550000	1.98590000
352.23	3.56890000	1.99110000
353.74	3.57340000	1.99640000
355.26	3.57830000	2.00070000
356.79	3.58330000	2.00510000
358.34	3.58860000	2.01150000
359.90	3.59550000	2.01760000
361.47	3.60340000	2.02350000
363.06	3.61130000	2.03000000
364.66	3.62070000	2.03710000
366.28	3.63020000	2.04500000
367.91	3.64020000	2.05450000
369.55	3.65100000	2.06280000
371.21	3.66280000	2.07220000
372.89	3.67580000	2.08170000
374.58	3.69010000	2.09120000
376.28	3.70560000	2.10100000
378.00	3.72270000	2.10920000
379.74	3.74070000	2.11850000
381.49	3.76170000	2.12950000
383.26	3.78290000	2.14090000
385.05	3.80760000	2.15350000
386.85	3.83340000	2.16510000
388.67	3.86290000	2.17850000
390.50	3.89490000	2.19080000
392.36	3.93080000	2.20270000
394.23	3.97120000	2.21370000
396.12	4.01500000	2.22140000
398.03	4.06570000	2.22600000
399.95	4.12090000	2.22570000
401.90	4.17700000	2.21710000
403.86	4.23510000	2.20110000
405.84	4.28920000	2.17820000
407.85	4.33920000	2.14940000
409.87	4.38310000	2.11650000
411.91	4.42230000	2.08170000
413.97	4.45530000	2.04870000
416.06	4.48530000	2.01830000
418.16	4.51460000	1.99160000
420.29	4.54290000	1.96720000
422.44	4.57360000	1.94680000
424.61	4.61040000	1.92920000
426.80	4.65430000	1.91280000
429.01	4.70920000	1.89180000
431.25	4.77420000	1.86010000
433.51	4.84620000	1.81420000
435.80	4.91770000	1.75330000
438.11	4.98210000	1.67250000
440.44	5.03210000	1.57860000
442.80	5.06320000	1.47570000
445.19	5.07570000	1.37240000
447.60	5.07160000	1.27390000
450.04	5.05610000	1.18530000
452.50	5.03280000	1.10400000
454.99	5.00370000	1.03120000
457.51	4.97110000	0.96716000
460.06	4.93710000	0.91003000
462.63	4.90120000	0.85790000
465.24	4.86550000	0.81062000
467.87	4.82940000	0.76842000
470.53	4.79240000	0.73209000
473.23	4.75740000	0.69793000
475.95	4.72320000	0.66854000
478.71	4.69030000	0.64046000
481.50	4.65810000	0.61465000
484.32	4.62650000	0.59118000
487.17	4.59740000	0.56725000
490.06	4.56830000	0.54569000
492.98	4.54000000	0.52478000
495.94	4.51210000	0.50700000
498.93	4.48470000	0.49022000
501.96	4.45890000	0.47291000
505.03	4.43270000	0.45786000
508.14	4.40880000	0.44191000
511.28	4.38510000	0.42803000
514.46	4.36160000	0.41500000
517.68	4.33920000	0.40195000
520.95	4.31710000	0.39112000
524.25	4.29590000	0.38137000
527.60	4.27550000	0.37100000
530.99	4.25550000	0.36143000
534.42	4.23690000	0.35126000
537.90	4.21910000	0.34218000
541.42	4.20160000	0.33320000
544.99	4.18440000	0.32597000
548.61	4.16740000	0.31829000
552.27	4.15100000	0.31159000
555.99	4.13510000	0.30659000
559.75	4.11950000	0.30154000
563.57	4.10470000	0.29440000
567.44	4.09040000	0.28837000
571.36	4.07680000	0.28151000
575.34	4.06310000	0.27581000
579.37	4.04920000	0.27053000
583.46	4.03560000	0.26577000
587.61	4.02280000	0.26008000
591.81	4.01000000	0.25707000
596.08	3.99720000	0.25400000
600.41	3.98490000	0.25005000
604.81	3.97310000	0.24430000
609.26	3.96170000	0.24042000
613.79	3.95060000	0.23534000
618.38	3.93950000	0.23103000
623.04	3.92840000	0.22721000
627.77	3.91810000	0.22285000
632.58	3.90830000	0.21995000
637.46	3.89890000	0.21718000
642.41	3.88980000	0.21503000
647.44	3.88130000	0.21080000
652.55	3.87280000	0.20579000
657.75	3.86490000	0.20413000
663.02	3.85690000	0.20020000
668.38	3.84880000	0.19809000
673.83	3.84100000	0.19622000
679.37	3.83370000	0.19124000
685.00	3.82700000	0.18905000
690.73	3.82050000	0.18435000
696.55	3.81380000	0.18263000
702.47	3.80770000	0.17893000
708.49	3.80210000	0.17342000
714.61	3.79700000	0.16776000
720.84	3.79180000	0.16390000
727.19	3.78600000	0.16011000
733.64	3.78010000	0.15285000
740.21	3.77400000	0.14596000
746.90	3.76670000	0.14073000
753.71	3.75970000	0.13835000
760.65	3.75080000	0.13761000
767.71	3.74260000	0.13765000
774.91	3.73580000	0.13298000
782.24	3.72780000	0.12824000
789.71	3.71980000	0.12686000
797.33	3.71360000	0.12461000
805.10	3.70720000	0.11640000
813.02	3.70150000	0.11193000
821.09	3.69820000	0.11385000
829.33	3.69210000	0.11563000
837.74	3.68530000	0.11323000
846.32	3.67960000	0.11134000
855.07	3.67600000	0.10502000
864.01	3.67210000	0.10250000
873.14	3.66920000	0.09837600
882.46	3.66860000	0.09200500
891.98	3.67090000	0.08918500
901.71	3.67030000	0.08788900
911.66	3.66590000	0.09460000
921.82	3.65790000	0.09748900
932.22	3.64610000	0.10599000
942.85	3.63110000	0.11307000
953.73	3.62640000	0.11172000
964.87	3.62190000	0.11038000
976.26	3.61740000	0.10906000
987.93	3.61300000	0.10774000
999.88	3.60870000	0.10645000
