; From SOPRA S.A. http://www.sopra-sa.com/indices.htm
; Filename    Symbol               Range (nm)     Description
; GAAS415T    GaAs                275      999    Gallium Arsenide (Temp: 415 C)
; lambda/nm       n         k
275.83	3.53980000	3.23510000
276.75	3.56250000	3.20310000
277.68	3.59500000	3.15630000
278.62	3.62510000	3.12190000
279.56	3.63960000	3.08260000
280.51	3.65910000	3.04340000
281.46	3.68130000	3.00100000
282.43	3.70510000	2.95460000
283.39	3.72160000	2.91000000
284.37	3.73190000	2.86860000
285.35	3.74650000	2.83610000
286.34	3.75960000	2.80670000
287.34	3.77650000	2.76970000
288.34	3.79110000	2.72870000
289.35	3.80230000	2.68850000
290.36	3.81210000	2.64710000
291.39	3.81550000	2.60970000
292.42	3.81550000	2.57400000
293.46	3.80820000	2.53580000
294.50	3.79930000	2.50180000
295.55	3.79820000	2.47090000
296.62	3.79220000	2.43850000
297.68	3.78530000	2.40830000
298.76	3.78280000	2.38160000
299.84	3.78130000	2.35440000
300.93	3.77490000	2.32900000
302.03	3.76710000	2.30770000
303.14	3.76190000	2.28490000
304.26	3.75510000	2.26290000
305.38	3.74860000	2.24300000
306.51	3.73900000	2.22220000
307.66	3.73100000	2.19860000
308.80	3.72030000	2.17940000
309.96	3.71100000	2.16240000
311.13	3.70150000	2.14810000
312.31	3.69320000	2.13520000
313.49	3.68910000	2.12310000
314.68	3.68390000	2.11140000
315.89	3.67620000	2.10160000
317.10	3.66720000	2.09060000
318.32	3.65780000	2.07890000
319.55	3.65380000	2.06500000
320.79	3.64200000	2.05670000
322.04	3.63780000	2.04340000
323.30	3.63020000	2.03190000
324.57	3.62560000	2.02570000
325.85	3.62150000	2.01830000
327.14	3.61570000	2.01410000
328.44	3.60910000	2.00990000
329.75	3.60460000	2.00780000
331.07	3.59980000	2.00700000
332.40	3.59750000	2.00310000
333.74	3.59200000	1.99870000
335.10	3.59320000	1.98800000
336.46	3.58960000	1.97840000
337.83	3.59010000	1.97210000
339.22	3.59030000	1.96430000
340.62	3.59180000	1.95980000
342.03	3.59400000	1.95650000
343.45	3.59530000	1.95540000
344.88	3.59490000	1.95630000
346.33	3.59510000	1.95550000
347.78	3.59500000	1.95530000
349.25	3.59550000	1.95540000
350.74	3.59770000	1.95750000
352.23	3.59960000	1.95890000
353.74	3.60200000	1.96150000
355.26	3.60600000	1.96210000
356.79	3.60760000	1.96500000
358.34	3.60950000	1.96750000
359.90	3.61230000	1.96720000
361.47	3.61480000	1.96830000
363.06	3.61840000	1.96940000
364.66	3.62370000	1.97090000
366.28	3.63050000	1.97390000
367.91	3.63590000	1.97660000
369.55	3.64430000	1.97960000
371.21	3.65230000	1.98230000
372.89	3.65940000	1.98640000
374.58	3.66780000	1.99020000
376.28	3.67690000	1.99280000
378.00	3.68590000	1.99670000
379.74	3.69680000	2.00130000
381.49	3.70860000	2.00720000
383.26	3.72220000	2.01170000
385.05	3.73490000	2.01790000
386.85	3.75000000	2.02220000
388.67	3.76560000	2.02690000
390.50	3.78250000	2.03110000
392.36	3.80070000	2.03530000
394.23	3.82030000	2.03900000
396.12	3.84050000	2.04410000
398.03	3.86340000	2.04930000
399.95	3.88800000	2.05450000
401.90	3.91480000	2.05750000
403.86	3.94230000	2.06160000
405.84	3.97220000	2.06460000
407.85	4.00320000	2.06740000
409.87	4.03610000	2.06760000
411.91	4.07040000	2.06640000
413.97	4.10520000	2.06200000
416.06	4.14170000	2.05570000
418.16	4.17960000	2.04390000
420.29	4.21780000	2.02970000
422.44	4.25610000	2.01270000
424.61	4.29530000	1.99400000
426.80	4.33360000	1.97180000
429.01	4.36990000	1.94890000
431.25	4.40430000	1.92330000
433.51	4.43650000	1.89840000
435.80	4.46720000	1.87150000
438.11	4.49900000	1.84510000
440.44	4.53230000	1.81790000
442.80	4.56460000	1.79110000
445.19	4.59850000	1.76300000
447.60	4.63640000	1.73200000
450.04	4.67430000	1.69690000
452.50	4.71180000	1.65710000
454.99	4.74940000	1.61180000
457.51	4.78560000	1.55960000
460.06	4.81740000	1.50190000
462.63	4.84410000	1.43930000
465.24	4.86440000	1.37360000
467.87	4.87560000	1.30660000
470.53	4.88000000	1.23890000
473.23	4.87910000	1.17300000
475.95	4.87010000	1.10860000
478.71	4.85490000	1.04700000
481.50	4.83630000	0.98843000
484.32	4.81240000	0.93408000
487.17	4.78630000	0.88447000
490.06	4.75810000	0.83869000
492.98	4.73070000	0.79709000
495.94	4.70360000	0.75779000
498.93	4.67640000	0.72117000
501.96	4.64830000	0.69039000
505.03	4.62070000	0.65780000
508.14	4.59320000	0.63120000
511.28	4.56590000	0.60606000
514.46	4.53950000	0.58138000
517.68	4.51400000	0.55847000
520.95	4.48920000	0.53700000
524.25	4.46520000	0.51636000
527.60	4.44190000	0.49752000
530.99	4.41880000	0.48070000
534.42	4.39590000	0.46868000
537.90	4.37460000	0.45309000
541.42	4.35430000	0.44135000
544.99	4.33510000	0.42883000
548.61	4.31630000	0.41575000
552.27	4.29750000	0.40309000
555.99	4.27980000	0.39096000
559.75	4.26160000	0.38045000
563.57	4.24440000	0.37094000
567.44	4.22790000	0.36139000
571.36	4.21200000	0.35367000
575.34	4.19560000	0.34402000
579.37	4.17980000	0.33747000
583.46	4.16450000	0.33030000
587.61	4.14830000	0.32442000
591.81	4.13210000	0.31779000
596.08	4.11740000	0.31135000
600.41	4.10270000	0.30444000
604.81	4.08890000	0.29621000
609.26	4.07520000	0.28960000
613.79	4.06230000	0.28357000
618.38	4.04900000	0.27741000
623.04	4.03630000	0.27345000
627.77	4.02420000	0.26701000
632.58	4.01260000	0.26083000
637.46	4.00040000	0.25448000
642.41	3.98990000	0.24971000
647.44	3.97880000	0.24422000
652.55	3.96740000	0.24142000
657.75	3.95670000	0.23718000
663.02	3.94660000	0.23382000
668.38	3.93770000	0.22983000
673.83	3.92790000	0.23032000
679.37	3.91870000	0.22558000
685.00	3.91070000	0.21881000
690.73	3.90230000	0.21484000
696.55	3.89450000	0.21163000
702.47	3.88630000	0.21280000
708.49	3.87800000	0.21334000
714.61	3.87000000	0.20964000
720.84	3.86230000	0.20621000
727.19	3.85480000	0.20485000
733.64	3.84710000	0.20307000
740.21	3.84090000	0.20003000
746.90	3.83490000	0.18903000
753.71	3.83010000	0.18458000
760.65	3.82340000	0.18429000
767.71	3.81790000	0.18379000
774.91	3.81160000	0.17846000
782.24	3.80550000	0.17238000
789.71	3.79960000	0.16737000
797.33	3.79270000	0.16554000
805.10	3.78660000	0.16476000
813.02	3.77970000	0.16303000
821.09	3.77290000	0.14490000
829.33	3.76640000	0.13882000
837.74	3.75950000	0.13575000
846.32	3.75320000	0.13013000
855.07	3.74660000	0.12180000
864.01	3.74040000	0.11759000
873.14	3.73390000	0.11638000
882.46	3.72830000	0.12099000
891.98	3.72290000	0.12848000
901.71	3.71700000	0.13362000
911.66	3.71320000	0.12609000
921.82	3.70810000	0.12873000
932.22	3.70460000	0.13257000
942.85	3.70180000	0.12134000
953.73	3.69700000	0.11980000
964.87	3.69220000	0.11827000
976.26	3.68750000	0.11678000
987.93	3.68280000	0.11532000
999.88	3.67830000	0.11389000
