; From SOPRA S.A. http://www.sopra-sa.com/indices.htm
; Filename    Symbol               Range (nm)     Description
; HFSI2       HfSi2               130    24797    Hafnium Silicide
; lambda/nm       n         k
130.51	0.44800000	1.24800000
131.20	0.46156200	1.25593700
131.90	0.47800000	1.26200000
132.60	0.49368700	1.26781200
133.32	0.50500000	1.27500000
134.04	0.50437500	1.28725000
134.77	0.50000000	1.30000000
135.50	0.49700000	1.30712500
136.25	0.49700000	1.31700000
137.00	0.50575000	1.34025000
137.76	0.51600000	1.36400000
138.53	0.52118800	1.37625000
139.31	0.52500000	1.38500000
140.10	0.52943700	1.39206200
140.89	0.53300000	1.40400000
141.70	0.53300000	1.43443800
142.51	0.53500000	1.46400000
143.34	0.54543800	1.47287500
144.17	0.55900000	1.47600000
145.01	0.57337500	1.48150000
145.86	0.58600000	1.49000000
146.73	0.59106300	1.50675000
147.60	0.59600000	1.52600000
148.49	0.60906200	1.54437500
149.38	0.62200000	1.56000000
150.29	0.62731300	1.56787500
151.20	0.63100000	1.57400000
152.13	0.63700000	1.58300000
153.07	0.64400000	1.59400000
154.02	0.65256300	1.60918700
154.98	0.66100000	1.62400000
155.96	0.66743800	1.63350000
156.94	0.67300000	1.64100000
157.94	0.67768800	1.64731300
158.96	0.68300000	1.65500000
159.98	0.69118800	1.66756300
161.02	0.70000000	1.68300000
162.07	0.70650000	1.70068700
163.14	0.71500000	1.72000000
164.22	0.73068700	1.74112500
165.31	0.74800000	1.76100000
166.42	0.76306300	1.77531300
167.55	0.77600000	1.78800000
168.69	0.78400000	1.80181300
169.84	0.79200000	1.81600000
171.01	0.80506300	1.83118800
172.20	0.82000000	1.84600000
173.41	0.83568700	1.85862500
174.63	0.85100000	1.87100000
175.87	0.86400000	1.88525000
177.12	0.87600000	1.89900000
178.40	0.88775000	1.91012500
179.69	0.89900000	1.92000000
181.00	0.91006300	1.92800000
182.33	0.92000000	1.93800000
183.68	0.92625000	1.95637500
185.05	0.93400000	1.97500000
186.44	0.94968700	1.98556200
187.86	0.96700000	1.99500000
189.29	0.98093800	2.00931200
190.75	0.99400000	2.02300000
192.23	1.00687500	2.03056300
193.73	1.02000000	2.03800000
195.25	1.03437500	2.05087500
196.80	1.04900000	2.06500000
198.38	1.06356300	2.07781300
199.98	1.07700000	2.09000000
201.60	1.08662500	2.10025000
203.25	1.09700000	2.11200000
204.93	1.11293700	2.12975000
206.64	1.13100000	2.14900000
208.38	1.14956300	2.16718800
210.14	1.16800000	2.18300000
211.94	1.18531300	2.19150000
213.77	1.20100000	2.20100000
215.63	1.21312500	2.22125000
217.52	1.22500000	2.24300000
219.44	1.23950000	2.25818700
221.40	1.25600000	2.27300000
223.40	1.27550000	2.29337500
225.43	1.29600000	2.31200000
227.50	1.31493800	2.32062500
229.60	1.33500000	2.32800000
231.75	1.35975000	2.34118800
233.93	1.38400000	2.35700000
236.16	1.40331300	2.37593800
238.43	1.41900000	2.39400000
240.75	1.42950000	2.40612500
243.11	1.43900000	2.41600000
245.52	1.45181200	2.42356200
247.97	1.46600000	2.43500000
250.48	1.48075000	2.45837500
253.03	1.49700000	2.48800000
255.64	1.51475000	2.52112500
258.30	1.53600000	2.55700000
261.02	1.56412500	2.59437500
263.80	1.59500000	2.63200000
266.63	1.62437500	2.66912500
269.53	1.65600000	2.70300000
272.49	1.69156200	2.72750000
275.52	1.73300000	2.75200000
278.62	1.78212500	2.78700000
281.78	1.84100000	2.82300000
285.02	1.91568800	2.85581300
288.34	1.99600000	2.88000000
291.73	2.07437500	2.88612500
295.20	2.14900000	2.88200000
298.76	2.21624900	2.87131300
302.40	2.27400000	2.85700000
306.14	2.31481200	2.84287500
309.96	2.35100000	2.83000000
313.89	2.39481300	2.82143800
317.91	2.43900000	2.81500000
322.04	2.47962500	2.80893800
326.28	2.51900000	2.80500000
330.63	2.55762500	2.80481200
335.10	2.59700000	2.80700000
339.69	2.63700000	2.81168700
344.40	2.68300000	2.81600000
349.25	2.74193800	2.81481300
354.24	2.80900000	2.81500000
359.38	2.88100000	2.82962500
364.66	2.96000000	2.83500000
370.11	3.05187500	2.80787500
375.71	3.14200000	2.76000000
381.49	3.21793700	2.69062500
387.45	3.27900000	2.61400000
393.60	3.31693700	2.54656300
399.95	3.34200000	2.48100000
406.51	3.36262500	2.41343800
413.28	3.37600000	2.35000000
420.29	3.38037500	2.29787500
427.54	3.38100000	2.25000000
435.04	3.38443700	2.20131200
442.80	3.38500000	2.15300000
450.86	3.38006200	2.10281300
459.20	3.36700000	2.05600000
467.87	3.33925000	2.01393700
476.87	3.30600000	1.98600000
486.22	3.27168800	1.98600000
495.94	3.24400000	2.00200000
506.06	3.23512500	2.03256200
516.60	3.23600000	2.06000000
527.60	3.24356200	2.05781200
539.07	3.25200000	2.05100000
551.05	3.25262500	2.05818700
563.57	3.25100000	2.07200000
576.68	3.24906200	2.09193700
590.41	3.24900000	2.11600000
604.81	3.25350000	2.14056300
619.93	3.26300000	2.17000000
635.82	3.27750000	2.21056200
652.55	3.30100000	2.25300000
670.19	3.33962500	2.28806300
688.81	3.38700000	2.32200000
708.49	3.43850000	2.36018800
729.32	3.49500000	2.39600000
751.43	3.55525000	2.42331300
774.91	3.62100000	2.44600000
799.90	3.69425000	2.46850000
826.57	3.77300000	2.48300000
855.07	3.85862500	2.48112500
885.61	3.94300000	2.46900000
918.41	4.01687500	2.44906300
953.73	4.08500000	2.42400000
991.88	4.15075000	2.39850000
1033.21	4.20900000	2.36900000
1078.13	4.25131300	2.33668800
1127.14	4.29100000	2.29200000
1180.81	4.35693700	2.22006200
1239.85	4.39400000	2.13800000
1305.11	4.33843800	2.04587500
1377.61	4.24500000	1.98000000
1458.65	4.14968700	1.98325000
1549.81	4.04500000	2.03600000
1653.14	3.93206300	2.12862500
1771.22	3.82100000	2.27400000
1907.46	3.72312500	2.49162500
2066.42	3.63600000	2.75200000
2254.28	3.55668700	3.00493700
2479.70	3.49800000	3.33200000
