;UO 
;UO Hg.ASC: Values of n and k for liquid  mercury from various
;UO references in HOCII (pg. 467).  Reference is 11.
;UO 
;UO From HANDBOOK OF OPTICAL CONSTANTS IN SOLIDS II edited by Edward D.
;UO Palik. Copyright (c) 1991 by Academic Press, Inc. Reproduced by
;UO permission of the publisher.
;UO -----------------------------------------------------------
;UO        nm        n        k
;UO -----------------------------------------------------------
;N  3
;L    Wavelength[nm]        n        k
103.30	1.06400000	0.46700000
107.80	1.05000000	0.49100000
112.70	1.03900000	0.52300000
114.80	1.03900000	0.53700000
117.00	1.04100000	0.55000000
119.20	1.04500000	0.56100000
121.60	1.05400000	0.56900000
124.00	1.06200000	0.56700000
126.50	1.06100000	0.55700000
129.20	1.04400000	0.54100000
131.90	1.00900000	0.54800000
134.80	0.98800000	0.56800000
137.80	0.97500000	0.58800000
140.90	0.96500000	0.60700000
144.20	0.95600000	0.62400000
147.60	0.95300000	0.63800000
151.20	0.95200000	0.64500000
155.00	0.94600000	0.63900000
159.00	0.92900000	0.62300000
163.10	0.89300000	0.59700000
165.30	0.86000000	0.58000000
167.50	0.81700000	0.57400000
169.80	0.76900000	0.57500000
172.20	0.71700000	0.58400000
174.60	0.66300000	0.58900000
177.10	0.58500000	0.61700000
179.70	0.51000000	0.67600000
182.30	0.45900000	0.75600000
185.10	0.43800000	0.83600000
187.90	0.43600000	0.89800000
190.70	0.42800000	0.94900000
193.70	0.41200000	1.00200000
196.80	0.39900000	1.05800000
200.00	0.39000000	1.11800000
203.30	0.38800000	1.17600000
206.60	0.38600000	1.23200000
210.10	0.38500000	1.28700000
213.80	0.38600000	1.34100000
217.50	0.38600000	1.39600000
221.40	0.38600000	1.45400000
225.40	0.39000000	1.51200000
229.60	0.39400000	1.56900000
238.40	0.40100000	1.68700000
248.00	0.41400000	1.80600000
258.30	0.43100000	1.92900000
269.50	0.45200000	2.05800000
281.80	0.47700000	2.19500000
295.20	0.50700000	2.34100000
310.00	0.54200000	2.50200000
326.30	0.58900000	2.66500000
344.40	0.64400000	2.86000000
364.70	0.71300000	3.07400000
387.50	0.79800000	3.29400000
413.30	0.89800000	3.53800000
442.80	1.02700000	3.80200000
476.90	1.18600000	4.09000000
516.60	1.38400000	4.40700000
563.60	1.62000000	4.75100000
619.90	1.91000000	5.15000000
688.80	2.28400000	5.58200000
774.90	2.74600000	6.05400000
885.60	3.32400000	6.55800000
1033.00	4.05000000	7.08200000
1240.00	4.96200000	7.64300000
1550.00	6.08600000	8.31200000
2066.00	7.57400000	9.19500000
2480.00	8.52800000	9.80500000
