;UO 
;UO Hg71Cd29.TeA:  Values of n and k for cubic mercury cadmium
;UO telluride (Hg0.71Cd0.29Te) from various references in HOCII
;UO (pg. 670, 683).  Reference is 5, 26, 31. 
;UO 
;UO Copyright (c) 1995 the Optical Society of America.  Contains data
;UO from HANDBOOK OF OPTICAL CONSTANTS IN SOLIDS II edited by Edward D.
;UO Palik. Copyright (c) 1991 by Academic Press, Inc. Reproduced by
;UO permission of the publisher.
;UO ----------------------------------------------------------
;UO        nm        n        k
;UO ----------------------------------------------------------	
;N  3
;L    Wavelength[nm]        n        k
206.60	1.38400000	1.71200000
207.30	1.38300000	1.71000000
207.90	1.40900000	1.71700000
208.50	1.38000000	1.72900000
209.20	1.39000000	1.72200000
209.80	1.39600000	1.72900000
210.40	1.38600000	1.73600000
211.10	1.38400000	1.74400000
211.70	1.38300000	1.75200000
212.40	1.38200000	1.76100000
213.10	1.37700000	1.77500000
213.70	1.37600000	1.77500000
214.40	1.37800000	1.78800000
215.10	1.37900000	1.80000000
215.70	1.37700000	1.80800000
216.40	1.38000000	1.81900000
217.10	1.38200000	1.83300000
217.80	1.38200000	1.84300000
218.50	1.38600000	1.85500000
219.20	1.39100000	1.87000000
219.90	1.39500000	1.88500000
220.60	1.40000000	1.89500000
221.30	1.40800000	1.91300000
222.00	1.41400000	1.92600000
222.70	1.42100000	1.93900000
223.50	1.43000000	1.95300000
224.20	1.43900000	1.96700000
224.90	1.44900000	1.98000000
225.70	1.45900000	1.99400000
226.40	1.47100000	2.00800000
227.20	1.48200000	2.02000000
227.90	1.49500000	2.03400000
228.70	1.51000000	2.04600000
229.40	1.52500000	2.05800000
230.20	1.54000000	2.06800000
231.00	1.55700000	2.07900000
231.80	1.57200000	2.08800000
232.60	1.58900000	2.09700000
233.30	1.60600000	2.10600000
234.10	1.62100000	2.11400000
234.90	1.63800000	2.12200000
235.70	1.65600000	2.13000000
236.60	1.67200000	2.13800000
237.40	1.69100000	2.14500000
238.20	1.70700000	2.15200000
239.00	1.72600000	2.15800000
239.90	1.74500000	2.16600000
240.70	1.76400000	2.17200000
241.60	1.78300000	2.17600000
242.40	1.80200000	2.18100000
243.30	1.82200000	2.18500000
244.10	1.84200000	2.18800000
245.00	1.86200000	2.19100000
245.90	1.88200000	2.19400000
246.80	1.90300000	2.19600000
247.70	1.92300000	2.19800000
248.60	1.94300000	2.20000000
249.50	1.96500000	2.20100000
250.40	1.98700000	2.20100000
251.30	2.00800000	2.20200000
252.20	2.03100000	2.20200000
253.10	2.05400000	2.20100000
254.10	2.07700000	2.19900000
255.00	2.10000000	2.19700000
256.00	2.12100000	2.19400000
256.90	2.14600000	2.19000000
257.90	2.16900000	2.18500000
258.90	2.19400000	2.18000000
259.90	2.21800000	2.17300000
260.80	2.24300000	2.16400000
261.80	2.26700000	2.15500000
262.80	2.29100000	2.14500000
263.90	2.31500000	2.13200000
264.90	2.33800000	2.11700000
265.90	2.36100000	2.10100000
266.90	2.38100000	2.08400000
268.00	2.40000000	2.06600000
269.00	2.41800000	2.04700000
270.10	2.43500000	2.02800000
271.20	2.44900000	2.00800000
272.20	2.46200000	1.98800000
273.30	2.47500000	1.96900000
274.40	2.48500000	1.94800000
275.50	2.49400000	1.92800000
276.60	2.50200000	1.90800000
277.70	2.50800000	1.88800000
278.90	2.51300000	1.87000000
280.00	2.51700000	1.85200000
281.20	2.51900000	1.83500000
282.30	2.52000000	1.81800000
283.50	2.52100000	1.80300000
284.70	2.52100000	1.78900000
285.80	2.52200000	1.77500000
287.00	2.52100000	1.76200000
288.20	2.52100000	1.75100000
289.50	2.52000000	1.74000000
290.70	2.52000000	1.72900000
291.90	2.51900000	1.71900000
293.20	2.51900000	1.71000000
294.40	2.51800000	1.70100000
295.70	2.51800000	1.69300000
297.00	2.51600000	1.68500000
298.30	2.51600000	1.67800000
299.60	2.51500000	1.67100000
300.90	2.51400000	1.66400000
302.20	2.51400000	1.65800000
303.50	2.51300000	1.65300000
304.90	2.51300000	1.64700000
306.30	2.51200000	1.64200000
307.60	2.51200000	1.63800000
309.00	2.51100000	1.63400000
310.40	2.51000000	1.63000000
311.80	2.51100000	1.62600000
313.30	2.51000000	1.62200000
314.70	2.51000000	1.61900000
316.10	2.51000000	1.61700000
317.60	2.51000000	1.61400000
319.10	2.51000000	1.61200000
320.60	2.51100000	1.61000000
322.10	2.51100000	1.60900000
323.60	2.51100000	1.60700000
325.10	2.51100000	1.60600000
326.70	2.51200000	1.60500000
328.20	2.51200000	1.60600000
329.80	2.51300000	1.60600000
331.40	2.51400000	1.60600000
333.00	2.51500000	1.60700000
334.60	2.51700000	1.60800000
336.30	2.51800000	1.60900000
337.90	2.52000000	1.61100000
339.60	2.52200000	1.61300000
341.30	2.52500000	1.61500000
343.00	2.52700000	1.61700000
344.70	2.53000000	1.61900000
346.50	2.53300000	1.62200000
348.20	2.53600000	1.62500000
350.00	2.54000000	1.62900000
351.80	2.54400000	1.63200000
353.60	2.54800000	1.63600000
355.50	2.55300000	1.64000000
357.30	2.55700000	1.64500000
359.20	2.56300000	1.64900000
361.10	2.56800000	1.65400000
363.00	2.57400000	1.65900000
364.90	2.58000000	1.66500000
366.90	2.58700000	1.67000000
368.80	2.59500000	1.67600000
370.80	2.60300000	1.68200000
372.80	2.61200000	1.68900000
374.90	2.62100000	1.69600000
376.90	2.63000000	1.70300000
379.00	2.64100000	1.71000000
381.10	2.65200000	1.71700000
383.30	2.66400000	1.72500000
385.40	2.67600000	1.73200000
387.60	2.69100000	1.74100000
389.80	2.70600000	1.74900000
392.00	2.72300000	1.75800000
394.30	2.74100000	1.76600000
396.50	2.76100000	1.77400000
398.90	2.78200000	1.78100000
401.20	2.80600000	1.78800000
403.50	2.83200000	1.79300000
405.90	2.86100000	1.79500000
408.30	2.89100000	1.79500000
410.80	2.92200000	1.79000000
413.30	2.95300000	1.78200000
415.80	2.98300000	1.77000000
418.30	3.01000000	1.75600000
420.90	3.03400000	1.74000000
423.50	3.05600000	1.72200000
426.10	3.07500000	1.70300000
428.80	3.09100000	1.68400000
431.50	3.10500000	1.66600000
434.20	3.11800000	1.64800000
437.00	3.12900000	1.63100000
439.80	3.13800000	1.61600000
442.60	3.14600000	1.60200000
445.50	3.15400000	1.58900000
448.40	3.16100000	1.57600000
451.30	3.16700000	1.56600000
454.30	3.17400000	1.55500000
457.30	3.18100000	1.54600000
460.40	3.18700000	1.53900000
463.50	3.19300000	1.53300000
466.70	3.20100000	1.52700000
469.90	3.20700000	1.52400000
473.10	3.21600000	1.52000000
476.40	3.22500000	1.51700000
479.70	3.23600000	1.51500000
483.10	3.24600000	1.51600000
486.50	3.25900000	1.51700000
490.00	3.27400000	1.51800000
493.50	3.29000000	1.52200000
497.10	3.31000000	1.52500000
500.70	3.33300000	1.53000000
504.40	3.36000000	1.53400000
508.20	3.39300000	1.53700000
512.00	3.43300000	1.53600000
515.80	3.47900000	1.52900000
519.70	3.52700000	1.51400000
523.70	3.57600000	1.48700000
527.70	3.62100000	1.45000000
531.80	3.65800000	1.40600000
536.00	3.68800000	1.35800000
540.20	3.70900000	1.30900000
544.50	3.72400000	1.26100000
548.80	3.73300000	1.21300000
553.20	3.73800000	1.16700000
557.70	3.73900000	1.12500000
562.30	3.73800000	1.08500000
567.00	3.73400000	1.04700000
571.70	3.72900000	1.01100000
576.50	3.72200000	0.97760000
581.40	3.71400000	0.94800000
586.30	3.70600000	0.91900000
591.40	3.69600000	0.89240000
596.50	3.68800000	0.86640000
601.80	3.67800000	0.84300000
607.10	3.66900000	0.82010000
612.50	3.65900000	0.79790000
618.00	3.64900000	0.77800000
623.70	3.64100000	0.75730000
629.40	3.63100000	0.74010000
635.20	3.62100000	0.72180000
641.10	3.61200000	0.70530000
647.20	3.60300000	0.69010000
653.40	3.59400000	0.67450000
659.60	3.58400000	0.66160000
666.00	3.57600000	0.64860000
672.60	3.56600000	0.63680000
679.20	3.55800000	0.62530000
686.00	3.55000000	0.61360000
693.00	3.54100000	0.60220000
700.00	3.53400000	0.59140000
707.20	3.52700000	0.58020000
714.60	3.52000000	0.57030000
722.10	3.51400000	0.55860000
729.80	3.50800000	0.55120000
737.70	3.50000000	0.54150000
745.70	3.49800000	0.53440000
753.90	3.49100000	0.52290000
762.20	3.48400000	0.51470000
770.80	3.47800000	0.50730000
779.60	3.47300000	0.50190000
788.50	3.46500000	0.49660000
797.70	3.46200000	0.48450000
807.10	3.45100000	0.49050000
816.70	3.44600000	0.47930000
826.50	3.44200000	0.47160000
