; Refractive index spectrum for Hg by Inagaki
;
; T. Inagaki, E. T. Arakawa, and M. W. Williams. Optical properties of liquid mercury, <a href="http://dx.doi.org/10.1103/PhysRevB.23.5246"><i>Phys. Rev. B</i> <b>23</b>, 5246-5262 (1981)</a>
;
; Liquid mercury at room temperature
;
; lambda/nm    n     k
103.32 	1.06391000 	0.46691000 
107.81 	1.05005000 	0.49093000 
112.71 	1.03950000 	0.52333000 
114.80 	1.03857000 	0.53631000 
116.97 	1.04130000 	0.55027000 
119.22 	1.04545000 	0.56148000 
121.55 	1.05405000 	0.56923000 
123.98 	1.06152000 	0.56711000 
126.51 	1.06094000 	0.55658000 
129.15 	1.04397000 	0.54072000 
131.90 	1.00864000 	0.54777000 
134.77 	0.98779000 	0.56844000 
137.76 	0.97457000 	0.58846000 
140.89 	0.96496000 	0.60676000 
144.17 	0.95609000 	0.62442000 
147.60 	0.95275000 	0.63815000 
151.20 	0.95194000 	0.64552000 
154.98 	0.94600000 	0.63900000 
158.95 	0.92904000 	0.62323000 
163.14 	0.89270000 	0.59650000 
167.55 	0.81658000 	0.57385000 
172.20 	0.71715000 	0.58405000 
177.12 	0.58506000 	0.61668000 
179.69 	0.50958000 	0.67614000 
182.33 	0.45880000 	0.75545000 
185.05 	0.43760000 	0.83582000 
187.85 	0.43614000 	0.89823000 
190.74 	0.42769000 	0.94927000 
193.73 	0.41230000 	1.00194000 
196.80 	0.39938000 	1.05826000 
199.97 	0.38978000 	1.11845000 
206.64 	0.38613000 	1.23211000 
213.77 	0.38584000 	1.34122000 
221.40 	0.38658000 	1.45377000 
229.60 	0.39348000 	1.56934000 
238.43 	0.40109000 	1.68667000 
247.97 	0.41398000 	1.80565000 
258.30 	0.43087000 	1.92864000 
269.53 	0.45157000 	2.05838000 
281.78 	0.47636000 	2.19475000 
295.20 	0.50656000 	2.34128000 
309.96 	0.54187000 	2.50152000 
326.27 	0.58934000 	2.66483000 
344.40 	0.64425000 	2.85991000 
364.66 	0.71303000 	3.07350000 
387.45 	0.79824000 	3.29351000 
413.28 	0.89800000 	3.53785000 
442.80 	1.02698000 	3.80193000 
476.86 	1.18600000 	4.08981000 
516.60 	1.38332000 	4.40608000 
563.56 	1.62088000 	4.75050000 
619.92 	1.90988000 	5.14953000 
688.80 	2.28417000 	5.58189000 
774.90 	2.74611000 	6.05402000 
885.60 	3.32380000 	6.55726000 
1033.20 	4.05007000 	7.08259000 
1239.84 	4.96140000 	7.64300000 
1549.80 	6.08732000 	8.31237000 
2066.40 	7.57453000 	9.19529000 
