; From SOPRA S.A. http://www.sopra-sa.com/indices.htm
; Filename    Symbol               Range (nm)     Description
; HGCDTE0     HgTe                200      900    Mercury Cadmium Telluride (0% Cd)
; lambda/nm       n         k
200.00	1.43500000	1.75500000
205.43	1.43500000	1.74842000
210.85	1.43765000	1.70916000
216.28	1.41824000	1.73524000
221.71	1.41361000	1.79593000
227.13	1.43368000	1.87004000
232.56	1.48409000	1.94961000
237.98	1.55246000	2.01715000
243.41	1.62516000	2.08022000
248.84	1.72018000	2.14728000
254.26	1.84185000	2.18864000
259.69	1.96838000	2.20186000
265.12	2.09338000	2.19192000
270.54	2.21185000	2.15671000
275.97	2.31391000	2.09684000
281.40	2.39015000	2.02266000
286.82	2.43957000	1.94454000
292.25	2.46788000	1.87583000
297.67	2.48027000	1.81349000
303.10	2.47935000	1.76549000
308.53	2.47446000	1.73165000
313.95	2.46969000	1.70887000
319.38	2.46760000	1.69304000
324.81	2.46700000	1.68229000
330.23	2.46700000	1.67524000
335.66	2.46787000	1.67226000
341.09	2.46991000	1.67104000
346.51	2.47401000	1.67401000
351.94	2.48015000	1.67914000
357.36	2.48652000	1.68602000
362.79	2.49467000	1.69561000
368.22	2.50489000	1.70589000
373.64	2.51705000	1.71826000
379.07	2.53068000	1.73268000
384.50	2.54547000	1.74747000
389.92	2.56340000	1.76338000
395.35	2.58210000	1.78042000
400.78	2.60415000	1.79852000
406.20	2.62894000	1.81756000
411.63	2.65630000	1.83742000
417.05	2.68602000	1.85801000
422.48	2.72053000	1.87908000
427.91	2.76109000	1.90046000
433.33	2.80829000	1.92079000
438.76	2.86322000	1.93702000
444.19	2.92863000	1.94461000
449.61	2.99817000	1.93607000
455.04	3.06237000	1.91081000
460.47	3.11352000	1.87655000
465.89	3.15182000	1.83955000
471.32	3.18110000	1.80305000
476.74	3.20402000	1.76920000
482.17	3.22022000	1.74085000
487.60	3.23342000	1.71710000
493.02	3.24453000	1.69678000
498.45	3.25440000	1.67967000
503.88	3.26406000	1.66629000
509.30	3.27403000	1.65655000
514.73	3.28431000	1.64981000
520.16	3.29502000	1.64365000
525.58	3.30770000	1.64100000
531.01	3.32187000	1.64019000
536.43	3.33644000	1.64231000
541.86	3.35479000	1.64557000
547.29	3.37566000	1.64948000
552.71	3.39978000	1.65922000
558.14	3.42777000	1.66886000
563.57	3.46315000	1.67969000
568.99	3.50665000	1.69081000
574.42	3.56258000	1.69826000
579.84	3.62969000	1.69590000
585.27	3.70451000	1.67503000
590.70	3.77591000	1.63205000
596.12	3.83409000	1.57320000
601.55	3.86442000	1.51736000
606.98	3.88852000	1.44778000
612.40	3.91671000	1.38309000
617.83	3.92475000	1.32676000
623.26	3.92868000	1.27613000
628.68	3.92900000	1.22829000
634.11	3.92494000	1.18465000
639.53	3.92032000	1.14514000
644.96	3.91393000	1.10868000
650.39	3.90688000	1.07549000
655.81	3.89871000	1.04476000
661.24	3.88943000	1.01587000
666.67	3.88078000	0.98946100
672.09	3.87092000	0.96635800
677.52	3.86254000	0.94303100
682.95	3.85339000	0.92197300
688.37	3.84427000	0.90243100
693.80	3.83574000	0.88367600
699.22	3.82721000	0.86584700
704.65	3.81889000	0.84947500
710.08	3.81111000	0.83439500
715.50	3.80379000	0.82016500
720.93	3.79656000	0.80555000
726.36	3.79002000	0.79156500
731.78	3.78349000	0.77818100
737.21	3.77662000	0.76554200
742.64	3.77044000	0.75391100
748.06	3.76383000	0.74385700
753.49	3.75655000	0.73571700
758.91	3.75056000	0.72748700
764.34	3.74476000	0.71931300
769.77	3.73908000	0.71123600
775.19	3.73350000	0.70270900
780.62	3.72785000	0.69463400
786.05	3.72175000	0.68896300
791.47	3.71641000	0.68161700
796.90	3.71169000	0.67288800
802.33	3.70657000	0.66589100
807.75	3.70125000	0.65967400
813.18	3.69503000	0.65696100
818.60	3.68983000	0.65189600
824.03	3.68651000	0.64248200
829.46	3.68480000	0.63815100
834.88	3.68443000	0.63806300
840.31	3.68406000	0.63797400
845.74	3.68369000	0.63788600
851.16	3.68332000	0.63779700
856.59	3.68295000	0.63770900
862.02	3.68258000	0.63762000
867.44	3.68221000	0.63753100
872.87	3.68184000	0.63744300
878.29	3.68147000	0.63735400
883.72	3.68110000	0.63726600
889.15	3.68073000	0.63717700
894.57	3.68037000	0.63708800
900.00	3.68000000	0.63700000
