;  Optical constants for HgTe
; 
;   taken from:
;
;   'Handbook of Optical Constants of Solids II', Ed. by Edward D. Palik,
;   Academic Press, Inc., 1991.
;   
;    Lambda (nm)            n            k
;-----------------------------------------
206.63	1.43500000	1.74700000
207.26	1.43700000	1.70400000
207.88	1.43300000	1.71700000
208.51	1.43500000	1.71600000
209.14	1.43400000	1.70600000
209.78	1.43700000	1.70800000
210.42	1.44000000	1.70900000
211.10	1.42600000	1.70900000
211.75	1.42700000	1.71300000
212.40	1.43100000	1.71200000
213.06	1.42600000	1.71000000
213.72	1.42400000	1.71300000
214.39	1.41600000	1.72100000
215.06	1.41500000	1.72400000
215.73	1.42100000	1.73000000
216.41	1.41600000	1.73400000
217.09	1.41600000	1.74000000
217.78	1.41100000	1.74900000
218.47	1.41300000	1.75600000
219.16	1.41000000	1.76500000
219.86	1.40900000	1.77200000
220.61	1.41200000	1.77900000
221.31	1.41300000	1.78800000
222.03	1.41400000	1.79900000
222.74	1.41500000	1.80800000
223.47	1.41700000	1.82000000
224.19	1.42000000	1.82900000
224.93	1.42400000	1.83900000
225.66	1.42600000	1.84900000
226.41	1.43100000	1.86000000
227.15	1.43400000	1.87100000
227.90	1.44100000	1.88200000
228.66	1.44500000	1.89200000
229.42	1.45300000	1.90400000
230.19	1.45900000	1.91600000
231.00	1.46700000	1.92800000
231.78	1.47500000	1.93900000
232.56	1.48300000	1.94900000
233.35	1.49300000	1.96000000
234.14	1.50200000	1.97200000
234.94	1.51300000	1.98100000
235.75	1.52400000	1.99200000
236.56	1.53400000	2.00100000
237.37	1.54400000	2.01100000
238.19	1.55500000	2.01900000
239.02	1.56600000	2.02900000
239.85	1.57700000	2.03700000
240.69	1.58700000	2.04700000
241.54	1.59800000	2.05700000
242.43	1.61000000	2.06700000
243.29	1.62200000	2.07900000
244.15	1.63500000	2.08900000
245.02	1.64900000	2.10100000
245.89	1.66400000	2.11200000
246.78	1.68000000	2.12300000
247.66	1.69700000	2.13400000
248.56	1.71500000	2.14500000
249.46	1.73400000	2.15400000
250.36	1.75400000	2.16200000
251.28	1.77400000	2.17100000
252.20	1.79500000	2.17700000
253.12	1.81700000	2.18400000
254.06	1.83800000	2.18800000
255.05	1.86000000	2.19300000
256.00	1.88200000	2.19600000
256.95	1.90400000	2.19900000
257.92	1.92600000	2.20100000
258.88	1.94900000	2.20300000
259.86	1.97100000	2.20400000
260.85	1.99400000	2.20300000
261.84	2.01700000	2.20200000
262.84	2.04100000	2.20100000
263.84	2.06500000	2.19800000
264.86	2.08800000	2.19400000
265.88	2.11100000	2.18900000
266.91	2.13500000	2.18300000
267.95	2.15800000	2.17700000
269.05	2.18000000	2.16900000
270.11	2.20300000	2.16100000
271.17	2.22500000	2.15100000
272.24	2.24600000	2.14100000
273.32	2.26700000	2.13000000
274.41	2.28700000	2.11700000
275.51	2.30700000	2.10400000
276.62	2.32500000	2.08900000
277.73	2.34300000	2.07500000
278.86	2.36000000	2.05900000
279.99	2.37500000	2.04300000
281.13	2.38800000	2.02600000
282.29	2.40100000	2.00900000
283.51	2.41300000	1.99200000
284.68	2.42300000	1.97500000
285.87	2.43300000	1.95900000
287.06	2.44100000	1.94200000
288.26	2.44900000	1.92600000
289.47	2.45600000	1.91000000
290.69	2.46200000	1.89400000
291.92	2.46700000	1.87900000
293.17	2.47200000	1.86400000
294.42	2.47500000	1.84800000
295.68	2.47800000	1.83400000
296.96	2.47900000	1.82000000
298.24	2.48100000	1.80700000
299.54	2.48100000	1.79400000
300.92	2.48100000	1.78200000
302.24	2.48000000	1.77100000
303.57	2.47900000	1.76100000
304.92	2.47800000	1.75200000
306.27	2.47600000	1.74400000
307.64	2.47500000	1.73600000
309.02	2.47400000	1.72900000
310.42	2.47300000	1.72200000
311.82	2.47100000	1.71600000
313.24	2.47000000	1.71100000
314.67	2.47000000	1.70600000
316.11	2.46900000	1.70100000
317.57	2.46800000	1.69700000
319.04	2.46800000	1.69300000
320.61	2.46700000	1.69000000
322.11	2.46700000	1.68700000
323.62	2.46700000	1.68400000
325.15	2.46700000	1.68100000
326.69	2.46700000	1.67900000
328.25	2.46600000	1.67700000
329.82	2.46700000	1.67500000
331.41	2.46700000	1.67400000
333.01	2.46700000	1.67300000
334.63	2.46700000	1.67200000
336.26	2.46800000	1.67200000
337.91	2.46900000	1.67100000
339.58	2.47000000	1.67100000
341.26	2.47000000	1.67100000
343.06	2.47200000	1.67200000
344.77	2.47300000	1.67300000
346.51	2.47400000	1.67400000
348.26	2.47600000	1.67500000
350.03	2.47800000	1.67700000
351.82	2.48000000	1.67900000
353.62	2.48100000	1.68100000
355.45	2.48400000	1.68300000
357.29	2.48700000	1.68600000
359.15	2.48900000	1.68900000
361.04	2.49200000	1.69200000
362.94	2.49500000	1.69600000
364.86	2.49900000	1.69900000
366.81	2.50200000	1.70300000
368.88	2.50600000	1.70700000
370.87	2.51000000	1.71200000
372.87	2.51500000	1.71600000
374.90	2.52000000	1.72200000
376.95	2.52500000	1.72700000
379.03	2.53000000	1.73200000
381.13	2.53600000	1.73800000
383.25	2.54200000	1.74300000
385.39	2.54800000	1.75000000
387.56	2.55500000	1.75600000
389.75	2.56300000	1.76300000
391.97	2.57000000	1.77000000
394.21	2.57800000	1.77700000
396.48	2.58700000	1.78400000
398.91	2.59600000	1.79200000
401.23	2.60600000	1.80000000
403.58	2.61600000	1.80800000
405.96	2.62700000	1.81600000
408.37	2.63900000	1.82500000
410.80	2.65100000	1.83400000
413.27	2.66400000	1.84400000
415.76	2.67800000	1.85300000
418.29	2.69400000	1.86300000
420.84	2.71000000	1.87300000
423.43	2.72700000	1.88300000
426.05	2.74600000	1.89300000
428.70	2.76800000	1.90400000
431.54	2.79000000	1.91400000
434.26	2.81600000	1.92400000
437.01	2.84400000	1.93300000
439.80	2.87400000	1.94000000
442.63	2.90800000	1.94500000
445.49	2.94500000	1.94600000
448.39	2.98300000	1.94200000
451.33	3.02000000	1.93200000
454.31	3.05600000	1.91700000
457.32	3.08800000	1.89800000
460.38	3.11500000	1.87700000
463.48	3.13800000	1.85600000
466.62	3.15900000	1.83300000
469.80	3.17500000	1.81200000
473.21	3.19000000	1.79100000
476.48	3.20300000	1.77100000
479.80	3.21400000	1.75300000
483.16	3.22300000	1.73600000
486.58	3.23100000	1.72100000
490.04	3.23900000	1.70700000
493.55	3.24500000	1.69500000
497.11	3.25200000	1.68300000
500.73	3.25900000	1.67400000
504.39	3.26500000	1.66500000
508.11	3.27200000	1.65800000
511.89	3.27900000	1.65300000
515.72	3.28700000	1.64700000
519.61	3.29400000	1.64400000
523.79	3.30300000	1.64100000
527.80	3.31300000	1.64100000
531.88	3.32400000	1.64000000
536.01	3.33500000	1.64200000
540.22	3.34900000	1.64500000
544.49	3.36400000	1.64900000
548.83	3.38200000	1.65300000
553.24	3.40200000	1.66000000
557.71	3.42500000	1.66800000
562.27	3.45400000	1.67700000
566.89	3.48800000	1.68700000
571.60	3.53200000	1.69600000
576.38	3.58600000	1.70000000
581.25	3.65000000	1.69400000
586.47	3.71900000	1.67000000
591.51	3.78500000	1.62600000
596.63	3.83800000	1.56900000
601.85	3.87600000	1.50700000
607.15	3.90100000	1.44300000
612.55	3.91700000	1.38200000
618.05	3.92500000	1.32500000
623.64	3.92900000	1.27200000
629.34	3.92900000	1.22200000
635.14	3.92400000	1.17600000
641.06	3.91900000	1.13400000
647.08	3.91100000	1.09400000
653.21	3.90300000	1.05800000
659.47	3.89200000	1.02400000
666.20	3.88200000	0.99230000
672.71	3.87000000	0.96420000
679.34	3.86000000	0.93580000
686.11	3.84800000	0.91070000
693.01	3.83700000	0.88630000
700.06	3.82600000	0.86330000
707.25	3.81500000	0.84190000
714.58	3.80500000	0.82260000
722.07	3.79500000	0.80240000
729.72	3.78600000	0.78280000
737.54	3.77600000	0.76440000
745.52	3.76700000	0.74740000
753.68	3.75600000	0.73510000
762.02	3.74700000	0.72250000
771.02	3.73800000	0.70970000
779.75	3.72900000	0.69570000
788.68	3.71900000	0.68640000
797.81	3.71100000	0.67160000
807.16	3.70200000	0.66000000
816.73	3.69100000	0.65520000
826.53	3.68500000	0.63820000
