;  Optical constants for InAs
; 
;   taken from:
;
;   'Handbook of Optical Constants of Solids', Ed. by Edward D. Palik,
;   Academic Press, Inc., 1985.
;   
;    Lambda (nm)            n            k
;-----------------------------------------
103.32	0.74500000	0.72700000
107.81	0.75100000	0.83000000
112.71	0.77500000	0.90500000
123.98	0.83500000	1.07100000
136.24	0.89000000	1.26000000
153.06	0.96700000	1.55200000
172.19	1.18400000	1.88900000
179.68	1.33200000	1.99800000
187.85	1.48300000	2.02000000
195.24	1.58300000	2.12000000
206.63	1.43400000	2.11200000
208.72	1.40100000	2.08500000
210.14	1.38300000	2.08400000
212.29	1.35000000	2.08900000
213.76	1.33300000	2.10200000
215.99	1.30600000	2.13500000
217.51	1.29300000	2.16300000
219.82	1.28100000	2.21200000
221.39	1.27600000	2.24800000
223.79	1.27700000	2.30400000
225.42	1.28200000	2.34400000
225.42	1.76500000	2.20200000
227.90	1.29700000	2.40700000
229.59	1.31200000	2.44900000
232.17	1.34100000	2.51400000
233.93	1.36600000	2.55500000
236.60	1.40800000	2.61200000
238.42	1.43600000	2.64600000
241.21	1.46900000	2.69400000
243.10	1.48400000	2.73200000
245.99	1.50500000	2.80700000
247.96	1.52400000	2.87100000
248.96	1.53500000	2.90700000
249.96	1.55000000	2.94600000
250.97	1.56600000	2.98800000
251.99	1.58600000	3.03400000
253.02	1.60800000	3.08100000
254.06	1.63500000	3.12900000
255.10	1.66800000	3.18200000
256.16	1.70500000	3.23600000
257.22	1.75100000	3.29100000
258.29	1.80300000	3.34800000
259.37	1.86600000	3.40400000
260.46	1.93800000	3.45600000
261.56	2.01900000	3.50400000
262.67	2.10800000	3.54500000
263.79	2.20400000	3.57500000
264.92	2.30500000	3.59500000
266.05	2.40700000	3.60400000
267.20	2.51000000	3.60400000
268.36	2.60900000	3.59600000
269.52	2.70500000	3.58100000
270.70	2.79900000	3.56400000
271.89	2.89400000	3.54300000
273.08	2.99000000	3.51900000
274.29	3.09100000	3.48700000
275.51	3.19400000	3.44500000
276.74	3.29800000	3.38900000
277.98	3.39900000	3.32000000
279.23	3.49000000	3.23900000
280.50	3.57300000	3.14600000
281.77	3.64400000	3.04200000
283.06	3.70100000	2.93100000
284.36	3.74200000	2.81400000
285.67	3.76500000	2.69700000
286.99	3.77000000	2.58400000
288.33	3.76100000	2.47800000
289.67	3.74200000	2.38200000
291.03	3.71500000	2.29700000
292.41	3.68400000	2.22200000
293.79	3.65000000	2.15600000
295.19	3.61500000	2.09900000
296.60	3.58000000	2.04900000
298.03	3.54500000	2.00500000
299.47	3.51200000	1.96700000
300.92	3.48000000	1.93300000
302.39	3.44900000	1.90300000
303.87	3.41900000	1.87700000
305.37	3.39100000	1.85400000
306.88	3.36400000	1.83300000
308.41	3.33800000	1.81500000
309.95	3.31300000	1.79900000
314.67	3.24600000	1.76100000
317.90	3.20800000	1.74300000
322.87	3.15800000	1.72600000
326.26	3.12900000	1.71900000
331.50	3.09100000	1.71400000
335.08	3.06900000	1.71500000
340.60	3.04400000	1.72100000
344.39	3.03000000	1.72800000
350.23	3.01500000	1.74200000
354.23	3.00800000	1.75400000
360.41	3.00300000	1.77400000
364.65	3.00400000	1.79000000
371.20	3.01000000	1.81700000
375.70	3.01800000	1.83600000
382.65	3.03500000	1.86800000
387.44	3.05100000	1.89100000
394.84	3.08300000	1.92900000
399.94	3.10800000	1.95700000
407.83	3.15700000	2.00100000
413.27	3.19700000	2.03400000
416.04	3.22000000	2.05100000
418.85	3.24400000	2.06900000
421.70	3.27200000	2.08800000
424.59	3.30200000	2.10800000
427.52	3.33700000	2.12900000
430.49	3.37700000	2.15100000
433.50	3.42500000	2.17400000
436.55	3.48200000	2.19400000
439.64	3.55000000	2.20700000
442.79	3.62600000	2.20800000
445.97	3.70500000	2.18900000
449.20	3.77600000	2.15300000
452.48	3.83400000	2.10800000
455.81	3.87800000	2.06000000
459.19	3.91100000	2.01600000
462.61	3.93500000	1.97700000
466.09	3.95600000	1.94300000
469.62	3.97600000	1.91700000
473.21	3.99600000	1.89800000
476.85	4.02100000	1.88500000
480.54	4.05200000	1.88100000
484.30	4.09800000	1.88200000
488.11	4.16800000	1.87900000
491.98	4.26500000	1.85500000
495.92	4.36400000	1.78600000
499.92	4.43700000	1.68600000
503.98	4.47600000	1.57500000
508.11	4.48900000	1.46600000
512.31	4.48400000	1.36800000
516.58	4.46600000	1.28300000
520.92	4.44300000	1.20900000
525.34	4.41700000	1.14400000
529.83	4.38900000	1.08600000
534.40	4.36000000	1.03500000
539.04	4.33100000	0.99100000
543.77	4.30300000	0.95100000
548.58	4.27600000	0.91400000
553.48	4.24900000	0.88000000
558.47	4.22400000	0.85000000
563.54	4.19900000	0.82200000
568.72	4.17600000	0.79400000
573.98	4.15300000	0.77100000
579.35	4.13100000	0.75000000
584.81	4.10900000	0.73000000
590.38	4.08800000	0.71200000
596.06	4.06800000	0.69400000
601.85	4.05000000	0.67700000
607.75	4.03100000	0.66100000
613.76	4.01200000	0.64800000
619.90	3.99500000	0.63400000
626.16	3.97900000	0.61900000
632.55	3.96200000	0.60600000
639.07	3.94700000	0.59400000
645.73	3.93200000	0.58200000
652.53	3.91700000	0.57200000
659.47	3.90200000	0.56400000
666.56	3.88900000	0.55400000
673.80	3.87500000	0.54700000
681.21	3.86200000	0.53900000
688.78	3.85100000	0.53000000
696.52	3.83900000	0.52300000
704.43	3.82800000	0.51500000
712.53	3.81700000	0.50800000
720.81	3.80700000	0.50000000
729.29	3.79800000	0.49300000
737.98	3.78800000	0.48600000
746.87	3.78000000	0.47800000
755.98	3.77000000	0.47500000
765.31	3.76100000	0.47300000
774.88	3.75500000	0.46300000
784.68	3.74600000	0.45700000
794.74	3.73500000	0.45800000
805.06	3.72900000	0.44800000
815.66	3.72000000	0.44400000
826.53	3.71400000	0.43200000
885.57	3.69600000	0.00000000
1033.17	3.61300000	0.00000000
1239.80	3.54800000	0.00000000
1377.56	3.51600000	0.00000000
