; From SOPRA S.A. http://www.sopra-sa.com/indices.htm
; Filename    Symbol               Range (nm)     Description
; INGASB7     In0.3Ga0.7Sb        225      825    Indium Gallium Antimonide (70% Ga)
; lambda/nm       n         k
225.00	1.17460100	2.55369700
230.00	1.25020300	2.56311100
235.00	1.29141000	2.56386300
240.00	1.30188700	2.58061000
245.00	1.29879200	2.62572200
250.00	1.29778800	2.69832100
255.00	1.30773000	2.79260200
260.00	1.33274300	2.90321400
265.00	1.37519900	3.02652900
270.00	1.43754500	3.16013500
275.00	1.52320700	3.30188500
280.00	1.63684600	3.44905200
285.00	1.78470200	3.59582700
290.00	1.97304000	3.73325100
295.00	2.20606000	3.84630300
300.00	2.48086500	3.91392700
305.00	2.78105600	3.91352200
310.00	3.07436200	3.83266600
315.00	3.32316700	3.68101700
320.00	3.50360200	3.49084000
325.00	3.61740800	3.29835600
330.00	3.68407300	3.12556600
335.00	3.72441400	2.97632800
340.00	3.75003000	2.84464100
345.00	3.76320500	2.72500900
350.00	3.76314800	2.61717400
355.00	3.75149200	2.52422500
360.00	3.73327900	2.44837900
365.00	3.71466300	2.38851500
370.00	3.70013100	2.34037000
375.00	3.69085600	2.29841700
380.00	3.68476600	2.25826400
385.00	3.67819300	2.21830100
390.00	3.66806600	2.17968500
395.00	3.65323100	2.14495500
400.00	3.63438900	2.11647100
405.00	3.61324800	2.09560900
410.00	3.59169400	2.08272700
415.00	3.57132700	2.07749800
420.00	3.55333600	2.07927200
425.00	3.53854900	2.08733200
430.00	3.52755700	2.10103300
435.00	3.52083600	2.11985900
440.00	3.51886800	2.14342500
445.00	3.52223900	2.17143900
450.00	3.53173700	2.20363600
455.00	3.54843400	2.23965300
460.00	3.57374300	2.27885200
465.00	3.60923100	2.32076200
470.00	3.65719300	2.36195900
475.00	3.71907800	2.39977700
480.00	3.79551500	2.42946700
485.00	3.88502600	2.44518400
490.00	3.98304700	2.44119700
495.00	4.08186100	2.41392600
500.00	4.17213000	2.36391400
505.00	4.24569300	2.29633700
510.00	4.29804800	2.21942000
515.00	4.32906100	2.14173900
520.00	4.34148800	2.07053500
525.00	4.34080500	2.00901200
530.00	4.33139700	1.95943400
535.00	4.31737200	1.92201500
540.00	4.30197300	1.89607500
545.00	4.28705200	1.88033900
550.00	4.27571700	1.87402500
555.00	4.26882000	1.87569200
560.00	4.26761200	1.88415600
565.00	4.27321800	1.89821000
570.00	4.28669900	1.91655500
575.00	4.30905200	1.93770300
580.00	4.34114800	1.95988800
585.00	4.38362200	1.98100500
590.00	4.43669800	1.99859400
595.00	4.49998700	2.00992000
600.00	4.57229400	2.01216600
605.00	4.65151500	2.00273600
610.00	4.73466300	1.97964000
615.00	4.81811400	1.94186000
620.00	4.89801100	1.88959900
625.00	4.97077800	1.82429400
630.00	5.03357400	1.74839900
635.00	5.08459100	1.66497600
640.00	5.12311900	1.57724100
645.00	5.14940900	1.48816800
650.00	5.16442500	1.40023300
655.00	5.16955800	1.31530200
660.00	5.16637600	1.23464500
665.00	5.15644100	1.15901500
670.00	5.14119400	1.08875500
675.00	5.12189800	1.02392000
680.00	5.09961600	0.96435700
685.00	5.07521900	0.90979200
690.00	5.04940700	0.85988400
695.00	5.02273300	0.81426100
700.00	4.99562300	0.77254600
705.00	4.96840600	0.73437700
710.00	4.94132900	0.69941200
715.00	4.91457600	0.66733600
720.00	4.88828100	0.63786100
725.00	4.86254100	0.61072700
730.00	4.83742000	0.58570300
735.00	4.81296000	0.56257800
740.00	4.78918800	0.54116700
745.00	4.76611500	0.52130600
750.00	4.74374300	0.50284500
755.00	4.72206600	0.48565400
760.00	4.70107300	0.46961600
765.00	4.68074900	0.45462600
770.00	4.66107700	0.44059200
775.00	4.64203700	0.42742900
780.00	4.62300000	0.41485500
785.00	4.60517000	0.40322900
790.00	4.58790900	0.39227400
795.00	4.57119500	0.38193500
800.00	4.55500600	0.37216400
805.00	4.53932200	0.36291700
810.00	4.52412400	0.35415500
815.00	4.50939100	0.34584200
820.00	4.49510500	0.33794400
825.00	4.48124700	0.33043200
