; From SOPRA S.A. http://www.sopra-sa.com/indices.htm
; Filename    Symbol               Range (nm)     Description
; INGASB5     In0.5Ga0.5Sb        225      825    Indium Gallium Antimonide (50% Ga)
; lambda/nm       n         k
225.00	1.13917100	2.49604900
230.00	1.22024000	2.50932100
235.00	1.26988100	2.50751100
240.00	1.28612600	2.51533900
245.00	1.28370200	2.54902200
250.00	1.27925200	2.61055200
255.00	1.28317800	2.69487600
260.00	1.30039600	2.79638600
265.00	1.33331600	2.91107700
270.00	1.38393900	3.03639700
275.00	1.45493700	3.17045900
280.00	1.55004500	3.31137300
285.00	1.67462500	3.45498200
290.00	1.83463800	3.59517200
295.00	2.03567000	3.72098500
300.00	2.27956100	3.81563200
305.00	2.55895500	3.85774300
310.00	2.85213200	3.82830200
315.00	3.12507600	3.72298200
320.00	3.34560200	3.56033900
325.00	3.50095300	3.37296100
330.00	3.59979900	3.18971800
335.00	3.66013200	3.02358500
340.00	3.69578800	2.87492100
345.00	3.71262700	2.74104100
350.00	3.71278000	2.62218000
355.00	3.69969300	2.52092700
360.00	3.67933800	2.43881000
365.00	3.65829800	2.37415400
370.00	3.64125400	2.32231700
375.00	3.62949400	2.27752300
380.00	3.62104200	2.23519400
385.00	3.61230500	2.19354300
390.00	3.60025500	2.15355700
395.00	3.58373100	2.11761200
400.00	3.56339600	2.08793400
405.00	3.54089900	2.06579500
410.00	3.51805800	2.05147100
415.00	3.49640300	2.04456900
420.00	3.47704400	2.04437600
425.00	3.46071900	2.05011200
430.00	3.44790400	2.06106600
435.00	3.43892200	2.07665800
440.00	3.43404900	2.09645100
445.00	3.43359100	2.12013100
450.00	3.43796400	2.14747600
455.00	3.44775800	2.17829100
460.00	3.46380600	2.21232500
465.00	3.48722700	2.24913200
470.00	3.51943600	2.28787900
475.00	3.56192400	2.32779900
480.00	3.61658600	2.36505100
485.00	3.68424600	2.39665700
490.00	3.76451800	2.41783900
495.00	3.85471200	2.42333400
500.00	3.94931800	2.40881500
505.00	4.04057800	2.37269600
510.00	4.12036700	2.31735000
515.00	4.18260000	2.24875100
520.00	4.22480200	2.17460900
525.00	4.24806400	2.10212900
530.00	4.25580200	2.03657300
535.00	4.25187700	1.98145500
540.00	4.24123900	1.93693800
545.00	4.22692600	1.90344100
550.00	4.21101300	1.88002500
555.00	4.19676500	1.86618100
560.00	4.18508200	1.86058000
565.00	4.17716000	1.86219400
570.00	4.17399700	1.87004400
575.00	4.17648500	1.88317800
580.00	4.18547300	1.90061400
585.00	4.20178700	1.92127700
590.00	4.22621500	1.94392200
595.00	4.25945200	1.96707100
600.00	4.30200500	1.98896200
605.00	4.35405700	2.00754500
610.00	4.41531600	2.02054100
615.00	4.48486000	2.02557300
620.00	4.56104800	2.02039300
625.00	4.64150900	2.00316400
630.00	4.72329000	1.97275300
635.00	4.80312400	1.92895500
640.00	4.87780900	1.87258100
645.00	4.94457900	1.80536300
650.00	5.00140900	1.72970100
655.00	5.04715000	1.64832400
660.00	5.08151700	1.56394800
665.00	5.10494300	1.47900900
670.00	5.11837100	1.39550100
675.00	5.12304100	1.31492300
680.00	5.12030500	1.23829400
685.00	5.11149800	1.16622800
690.00	5.09785100	1.09901100
695.00	5.08045100	1.03669300
700.00	5.06022400	0.97915700
705.00	5.03793700	0.92618200
710.00	5.01421700	0.87748300
715.00	4.98956800	0.83274600
720.00	4.96438600	0.79165000
725.00	4.93898000	0.75388000
730.00	4.91358900	0.71913600
735.00	4.88839700	0.68713700
740.00	4.86354000	0.65762700
745.00	4.83911700	0.63037000
750.00	4.81520200	0.60515300
755.00	4.79184500	0.58178300
760.00	4.76907800	0.56008800
765.00	4.74692100	0.53991300
770.00	4.72538300	0.52111900
775.00	4.70446600	0.50358000
780.00	4.68416600	0.48718700
785.00	4.66447400	0.47183800
790.00	4.64537600	0.45744400
795.00	4.62686000	0.44392400
800.00	4.60890900	0.43120700
805.00	4.59150600	0.41922500
810.00	4.57401900	0.40771200
815.00	4.55766700	0.39704000
820.00	4.54181000	0.38694500
825.00	4.52642800	0.37738200
