; From SOPRA S.A. http://www.sopra-sa.com/indices.htm
; Filename    Symbol               Range (nm)     Description
; INGASB0     InSb                225      825    Indium Gallium Antimonide (0% Ga)
; lambda/nm       n         k
225.00	1.10096400	2.41747100
230.00	1.18975600	2.44864400
235.00	1.26022300	2.45502200
240.00	1.29872500	2.45470300
245.00	1.30960000	2.46957700
250.00	1.30836600	2.51022200
255.00	1.30893300	2.57580000
260.00	1.31932200	2.66123300
265.00	1.34346100	2.76176200
270.00	1.38373200	2.87404300
275.00	1.44256800	2.99572200
280.00	1.52313700	3.12487000
285.00	1.63012100	3.25771100
290.00	1.76879100	3.38914400
295.00	1.94443000	3.50993700
300.00	2.15956600	3.60568800
305.00	2.40929800	3.65740500
310.00	2.67627500	3.64681100
315.00	2.93106200	3.56702800
320.00	3.14343100	3.43121400
325.00	3.29836200	3.26765500
330.00	3.40092300	3.10325800
335.00	3.46602300	2.95185300
340.00	3.50649800	2.81491900
345.00	3.52789100	2.69115100
350.00	3.53262100	2.58134600
355.00	3.52435300	2.48817700
360.00	3.50903200	2.41308800
365.00	3.49303000	2.35440000
370.00	3.48079200	2.30762200
375.00	3.47348200	2.26726200
380.00	3.46917300	2.22902800
385.00	3.46446100	2.19131500
390.00	3.45652900	2.15512700
395.00	3.44436100	2.12273900
400.00	3.42865600	2.09623800
405.00	3.41102200	2.07677800
410.00	3.39319800	2.06456400
415.00	3.37662600	2.05916900
420.00	3.36233600	2.05987100
425.00	3.35099700	2.06589800
430.00	3.34302700	2.07654700
435.00	3.33869500	2.09124500
440.00	3.33822200	2.10955300
445.00	3.34185100	2.13115600
450.00	3.34992100	2.15582000
455.00	3.36292300	2.18334700
460.00	3.38156100	2.21348900
465.00	3.40679000	2.24583300
470.00	3.43982900	2.27962400
475.00	3.48207700	2.31353000
480.00	3.53489200	2.34536900
485.00	3.59912700	2.37264200
490.00	3.67445200	2.38963600
495.00	3.75833900	2.39236100
500.00	3.84577600	2.37697300
505.00	3.92971700	2.34212700
510.00	4.00280000	2.29008600
515.00	4.05955700	2.22638900
520.00	4.09783800	2.15813800
525.00	4.11876100	2.09193600
530.00	4.12557000	2.03257600
535.00	4.12184400	1.98328200
540.00	4.11168100	1.94373500
545.00	4.09904900	1.91493800
550.00	4.08583300	1.89583200
555.00	4.07389700	1.88545800
560.00	4.06464900	1.88280700
565.00	4.05919100	1.88691000
570.00	4.05844400	1.89684600
575.00	4.06324000	1.91172600
580.00	4.07437500	1.93063600
585.00	4.09263300	1.95257600
590.00	4.11877400	1.97639200
595.00	4.15348800	2.00070400
600.00	4.19730300	2.02386300
605.00	4.25046900	2.04393100
610.00	4.31280300	2.05872200
615.00	4.38354400	2.06591800
620.00	4.46124000	2.06326100
625.00	4.54371700	2.04882000
630.00	4.62817200	2.02128100
635.00	4.71141500	1.98019400
640.00	4.79020500	1.92610200
645.00	4.86163200	1.86050100
650.00	4.92344400	1.78563600
655.00	4.97423400	1.70418100
660.00	5.01347300	1.61889500
665.00	5.04139600	1.53233400
670.00	5.05882000	1.44665100
675.00	5.06692100	1.36351200
680.00	5.06704300	1.28409300
685.00	5.06054900	1.20913500
690.00	5.04872500	1.13902900
695.00	5.03271700	1.07389700
700.00	5.01351600	1.01366900
705.00	4.99195500	0.95815500
710.00	4.96871300	0.90708400
715.00	4.94434200	0.86014800
720.00	4.91928000	0.81702400
725.00	4.89386900	0.77738900
730.00	4.86837900	0.74093400
735.00	4.84301300	0.70736900
740.00	4.81792500	0.67642500
745.00	4.79323200	0.64785500
750.00	4.76901800	0.62143600
755.00	4.74534000	0.59696500
760.00	4.72224000	0.57426100
765.00	4.69974300	0.55315900
770.00	4.67786200	0.53351200
775.00	4.65660300	0.51519000
780.00	4.63596300	0.49807500
785.00	4.61593600	0.48205900
790.00	4.59651100	0.46704900
795.00	4.57767500	0.45296000
800.00	4.55941200	0.43971400
805.00	4.54170700	0.42724300
810.00	4.52454100	0.41548400
815.00	4.50727100	0.40417000
820.00	4.49113900	0.39368000
825.00	4.47549300	0.38375000
