; From SOPRA S.A. http://www.sopra-sa.com/indices.htm
; Filename    Symbol               Range (nm)     Description
; INGASB1     In0.9Ga0.1Sb        225      825    Indium Gallium Antimonide (10% Ga)
; lambda/nm       n         k
225.00	1.10240700	2.42615300
230.00	1.19041800	2.45316600
235.00	1.25708900	2.45648500
240.00	1.29058600	2.45617100
245.00	1.29765500	2.47361100
250.00	1.29452900	2.51765100
255.00	1.29455900	2.58635000
260.00	1.30506700	2.67435600
265.00	1.32954300	2.77700400
270.00	1.37014900	2.89112400
275.00	1.42921000	3.01453200
280.00	1.50983000	3.14546400
285.00	1.61665400	3.28035500
290.00	1.75499100	3.41439400
295.00	1.93033000	3.53874700
300.00	2.14577200	3.63944100
305.00	2.39752200	3.69758800
310.00	2.66964800	3.69406700
315.00	2.93342400	3.61984300
320.00	3.15738300	3.48558700
325.00	3.32366800	3.31869800
330.00	3.43489200	3.14737700
335.00	3.50518300	2.98761500
340.00	3.54791500	2.84252700
345.00	3.56956100	2.71156400
350.00	3.57331900	2.59569500
355.00	3.56337100	2.49752200
360.00	3.54599800	2.41836000
365.00	3.52780200	2.35637900
370.00	3.51338200	2.30693400
375.00	3.50399000	2.26436700
380.00	3.49771900	2.22423800
385.00	3.49113000	2.18483400
390.00	3.48135400	2.14710400
395.00	3.46733100	2.11330900
400.00	3.44974000	2.08554300
405.00	3.43019000	2.06496800
410.00	3.41042600	2.05179100
415.00	3.39190400	2.04557800
420.00	3.37566200	2.04559500
425.00	3.36237100	2.05105100
430.00	3.35244500	2.06122700
435.00	3.34614100	2.07553000
440.00	3.34365500	2.09350700
445.00	3.34520100	2.11483100
450.00	3.35106600	2.13926900
455.00	3.36168000	2.16663800
460.00	3.37766600	2.19673600
465.00	3.39988700	2.22924300
470.00	3.42947100	2.26356600
475.00	3.46777100	2.29863900
480.00	3.51620900	2.33265400
485.00	3.57589600	2.36356700
490.00	3.64718800	2.38606200
495.00	3.72851800	2.39621800
500.00	3.81600400	2.38963300
505.00	3.90338900	2.36365700
510.00	3.98321400	2.31884000
515.00	4.04891000	2.25931200
520.00	4.09668100	2.19165100
525.00	4.12615100	2.12287300
530.00	4.13965800	2.05870900
535.00	4.14051000	2.00336400
540.00	4.13349600	1.95764100
545.00	4.12112300	1.92213300
550.00	4.10741000	1.89698700
555.00	4.09389300	1.88103500
560.00	4.08217600	1.87329800
565.00	4.07348100	1.87279900
570.00	4.06878300	1.87861600
575.00	4.06892100	1.88987600
580.00	4.07466800	1.90572800
585.00	4.08677700	1.92528300
590.00	4.10599100	1.94755900
595.00	4.13302600	1.97141000
600.00	4.16851700	1.99546800
605.00	4.21293200	2.01810200
610.00	4.26644700	2.03741300
615.00	4.32881000	2.05127600
620.00	4.39920200	2.05746800
625.00	4.47614200	2.05385200
630.00	4.55747000	2.03863300
635.00	4.64045600	2.01063100
640.00	4.72202500	1.96949600
645.00	4.79909300	1.91581800
650.00	4.86890600	1.85108000
655.00	4.92934800	1.77745200
660.00	4.97910100	1.69749700
665.00	5.01767300	1.61384900
670.00	5.04529300	1.52894500
675.00	5.06273400	1.44484800
680.00	5.07111100	1.36315800
685.00	5.07170200	1.28501500
690.00	5.06581200	1.21114800
695.00	5.05467000	1.14195000
700.00	5.03938300	1.07755700
705.00	5.02091200	1.01791700
710.00	5.00006500	0.96286000
715.00	4.97750900	0.91213600
720.00	4.95378500	0.86545600
725.00	4.92932700	0.82251000
730.00	4.90447700	0.78299300
735.00	4.87950100	0.74660700
740.00	4.85460800	0.71307200
745.00	4.82995100	0.68212700
750.00	4.80565100	0.65353200
755.00	4.78179300	0.62706800
760.00	4.75844000	0.60253900
765.00	4.73563600	0.57976500
770.00	4.71340600	0.55858600
775.00	4.69176900	0.53885700
780.00	4.67073000	0.52044800
785.00	4.65029100	0.50324300
790.00	4.63044600	0.48713700
795.00	4.61118700	0.47203700
800.00	4.59250100	0.45785700
805.00	4.57437600	0.44452100
810.00	4.55679500	0.43196200
815.00	4.53974200	0.42011600
820.00	4.52320200	0.40892900
825.00	4.50653500	0.39814200
