; From SOPRA S.A. http://www.sopra-sa.com/indices.htm
; Filename    Symbol               Range (nm)     Description
; INGASB10    GaSb                225      825    Indium Gallium Antimonide (100% Ga)
; lambda/nm       n         k
225.00	1.24859900	2.67284400
230.00	1.31493500	2.68245100
235.00	1.34615400	2.69452300
240.00	1.35366700	2.73065100
245.00	1.35611900	2.79711200
250.00	1.36699400	2.88989900
255.00	1.39336600	3.00288600
260.00	1.43907900	3.13124200
265.00	1.50743200	3.27154100
270.00	1.60259900	3.42069500
275.00	1.73008700	3.57478700
280.00	1.89695700	3.72613900
285.00	2.10973000	3.86276700
290.00	2.37105800	3.96540400
295.00	2.67281300	4.00899500
300.00	2.98954600	3.96996800
305.00	3.27952700	3.84315100
310.00	3.50278900	3.65209200
315.00	3.64342700	3.43999400
320.00	3.71466600	3.24593800
325.00	3.74482500	3.08886500
330.00	3.76040500	2.96751800
335.00	3.77650200	2.86927000
340.00	3.79535700	2.78053200
345.00	3.81128400	2.69429000
350.00	3.81831900	2.61162100
355.00	3.81533300	2.53765900
360.00	3.80612400	2.47639000
365.00	3.79635500	2.42795400
370.00	3.79031400	2.38892400
375.00	3.78906600	2.35436400
380.00	3.79046500	2.32035300
385.00	3.79081800	2.28570400
390.00	3.78709900	2.25195900
395.00	3.77826400	2.22199000
400.00	3.76517600	2.19843400
405.00	3.74973800	2.18290000
410.00	3.73405800	2.17595900
415.00	3.72000800	2.17748800
420.00	3.70913000	2.18704300
425.00	3.70272900	2.20409700
430.00	3.70205500	2.22814800
435.00	3.70849600	2.25869000
440.00	3.72374200	2.29507000
445.00	3.74970000	2.33689900
450.00	3.78934700	2.38095000
455.00	3.84503500	2.42449700
460.00	3.91861700	2.46227700
465.00	4.00978200	2.48710000
470.00	4.11436800	2.49100900
475.00	4.22355700	2.46796400
480.00	4.32538100	2.41707800
485.00	4.40865400	2.34408700
490.00	4.46698000	2.25945800
495.00	4.49973500	2.17486000
500.00	4.51203600	2.09795600
505.00	4.50979800	2.03413400
510.00	4.49922400	1.98522100
515.00	4.48551700	1.95105700
520.00	4.47274300	1.93044500
525.00	4.46405000	1.92173300
530.00	4.46138900	1.92292500
535.00	4.46807300	1.93229700
540.00	4.48536800	1.94737700
545.00	4.51485700	1.96545600
550.00	4.55767300	1.98327900
555.00	4.61420100	1.99702100
560.00	4.68370300	2.00245400
565.00	4.76398400	1.99536400
570.00	4.85128200	1.97221300
575.00	4.94054300	1.93087700
580.00	5.02611400	1.87121700
585.00	5.10270300	1.79519500
590.00	5.16626800	1.70646800
595.00	5.21453700	1.60959600
600.00	5.24702700	1.50917800
605.00	5.26469800	1.40918300
610.00	5.26940800	1.31262400
615.00	5.26341500	1.22149100
620.00	5.24900000	1.13689900
625.00	5.22823400	1.05928800
630.00	5.20288200	0.98863600
635.00	5.17438000	0.92463000
640.00	5.14385300	0.86680000
645.00	5.11216600	0.81460500
650.00	5.07996600	0.76748700
655.00	5.04773000	0.72491000
660.00	5.01580200	0.68637600
665.00	4.98442400	0.65142900
670.00	4.95376300	0.61966300
675.00	4.92392900	0.59071900
680.00	4.89498900	0.56427900
685.00	4.86698000	0.54006400
690.00	4.83991600	0.51782900
695.00	4.81379400	0.49736200
700.00	4.78860200	0.47847500
705.00	4.76431800	0.46100300
710.00	4.74091500	0.44480500
715.00	4.71776600	0.42954300
720.00	4.69604400	0.41553400
725.00	4.67510800	0.40246000
730.00	4.65492500	0.39023500
735.00	4.63546100	0.37878200
740.00	4.61668600	0.36803200
745.00	4.59856700	0.35792500
750.00	4.58107500	0.34840600
755.00	4.56418100	0.33942600
760.00	4.54785800	0.33094200
765.00	4.53207800	0.32291500
770.00	4.51681800	0.31530900
775.00	4.50205400	0.30809200
780.00	4.48776200	0.30123700
785.00	4.47392300	0.29471600
790.00	4.46051500	0.28850600
795.00	4.44751900	0.28258500
800.00	4.43491800	0.27693400
805.00	4.42269400	0.27153400
810.00	4.41083200	0.26637000
815.00	4.39931500	0.26142600
820.00	4.38812900	0.25668800
825.00	4.37726200	0.25214400
