; From SOPRA S.A. http://www.sopra-sa.com/indices.htm
; Filename    Symbol               Range (nm)     Description
; INGASB9     In0.1Ga0.9Sb        225      825    Indium Gallium Antimonide (90% Ga)
; lambda/nm       n         k
225.00	1.22106000	2.62840500
230.00	1.29049100	2.63701300
235.00	1.32450100	2.64426100
240.00	1.33209500	2.67311500
245.00	1.33168900	2.73185700
250.00	1.33752900	2.81735700
255.00	1.35716800	2.92351000
260.00	1.39439000	3.04533100
265.00	1.45201700	3.17942600
270.00	1.53346900	3.32313900
275.00	1.64337100	3.47361000
280.00	1.78806800	3.62515800
285.00	1.97426700	3.76905600
290.00	2.20710600	3.89035000
295.00	2.48510000	3.96730700
300.00	2.79293000	3.97540400
305.00	3.09795800	3.89815600
310.00	3.35833400	3.74324300
315.00	3.54483300	3.54406700
320.00	3.65614800	3.34228100
325.00	3.71357300	3.16621000
330.00	3.74387000	3.02315800
335.00	3.76559200	2.90534900
340.00	3.78465700	2.80090300
345.00	3.79809500	2.70273600
350.00	3.80156500	2.61116100
355.00	3.79474300	2.53047900
360.00	3.78175200	2.46401900
365.00	3.76836700	2.41147400
370.00	3.75891000	2.36911900
375.00	3.75446100	2.33180700
380.00	3.75288200	2.29544500
385.00	3.75047200	2.25869000
390.00	3.74417000	2.22294300
395.00	3.73287900	2.19095300
400.00	3.71738700	2.16525300
405.00	3.69950900	2.14736100
410.00	3.68125000	2.13775800
415.00	3.66434700	2.13623500
420.00	3.65015900	2.14226100
425.00	3.63974300	2.15523700
430.00	3.63399600	2.17462700
435.00	3.63382400	2.19998500
440.00	3.64029000	2.23090400
445.00	3.65475000	2.26688700
450.00	3.67873800	2.30778600
455.00	3.71486000	2.35086800
460.00	3.76519900	2.39414400
465.00	3.83169500	2.43344200
470.00	3.91483400	2.46281600
475.00	4.01221300	2.47514700
480.00	4.11742900	2.46399100
485.00	4.22048600	2.42635000
490.00	4.31043000	2.36482300
495.00	4.37909000	2.28728600
500.00	4.42350400	2.20401800
505.00	4.44529900	2.12479000
510.00	4.45023200	2.05497600
515.00	4.44370700	1.99821700
520.00	4.43097700	1.95535100
525.00	4.41628800	1.92583200
530.00	4.40290500	1.90844400
535.00	4.39275200	1.90154500
540.00	4.38906500	1.90392900
545.00	4.39295100	1.91375000
550.00	4.40595400	1.92921100
555.00	4.42946100	1.94824500
560.00	4.46461100	1.96838300
565.00	4.51210900	1.98668100
570.00	4.57195700	1.99974800
575.00	4.64315200	2.00393700
580.00	4.72345400	1.99573500
585.00	4.80936500	1.97230200
590.00	4.89639600	1.93205200
595.00	4.97965500	1.87505200
600.00	5.05459500	1.80308800
605.00	5.11771100	1.71932600
610.00	5.16693600	1.62770200
615.00	5.20170300	1.53223500
620.00	5.22267300	1.43648600
625.00	5.23133400	1.34325300
630.00	5.22959200	1.25448900
635.00	5.21944300	1.17138200
640.00	5.20276500	1.09450500
645.00	5.18120100	1.02398800
650.00	5.15612700	0.95966300
655.00	5.12865400	0.90118400
660.00	5.09965300	0.84811300
665.00	5.06979700	0.79997200
670.00	5.03959300	0.75628600
675.00	5.00942000	0.71660000
680.00	4.97955400	0.68049300
685.00	4.95019400	0.64758100
690.00	4.92147600	0.61751900
695.00	4.89349500	0.59000000
700.00	4.86630700	0.56475000
705.00	4.83994600	0.54152900
710.00	4.81442800	0.52012500
715.00	4.78975200	0.50035000
720.00	4.76590900	0.48203900
725.00	4.74288300	0.46504800
730.00	4.72065200	0.44924700
735.00	4.69919100	0.43452200
740.00	4.67787700	0.42056800
745.00	4.65788800	0.40771600
750.00	4.63858700	0.39567100
755.00	4.61994700	0.38436200
760.00	4.60194000	0.37372700
765.00	4.58453800	0.36371000
770.00	4.56771600	0.35425800
775.00	4.55144800	0.34532900
780.00	4.53571100	0.33687900
785.00	4.52048000	0.32887300
790.00	4.50573400	0.32127700
795.00	4.49145200	0.31406000
800.00	4.47761300	0.30719700
805.00	4.46419800	0.30066100
810.00	4.45118900	0.29443000
815.00	4.43856900	0.28848400
820.00	4.42632100	0.28280300
825.00	4.41443000	0.27737100
