; From SOPRA S.A. http://www.sopra-sa.com/indices.htm
; Filename    Symbol               Range (nm)     Description
; INGASB3     In0.7Ga0.3Sb        225      825    Indium Gallium Antimonide (30% Ga)
; lambda/nm       n         k
225.00	1.11487300	2.45388600
230.00	1.20016600	2.47327600
235.00	1.25854500	2.47247200
240.00	1.28269600	2.47460000
245.00	1.28378600	2.49901600
250.00	1.27871700	2.55104200
255.00	1.27945900	2.62691100
260.00	1.29203000	2.72098700
265.00	1.31923400	2.82889000
270.00	1.36300400	2.94778800
275.00	1.42567200	3.07572900
280.00	1.51058900	3.21076400
285.00	1.62223800	3.35023000
290.00	1.76649400	3.48831200
295.00	1.94895400	3.61620600
300.00	2.17287000	3.71948400
305.00	2.43439300	3.77860400
310.00	2.71713200	3.77369000
315.00	2.99136500	3.69517800
320.00	3.22431100	3.55387800
325.00	3.39707500	3.37813400
330.00	3.51186700	3.19763900
335.00	3.58375200	3.02883500
340.00	3.62634500	2.87584200
345.00	3.64683800	2.73798300
350.00	3.64877000	2.61614500
355.00	3.63654200	2.51286800
360.00	3.61662500	2.42941400
365.00	3.59580400	2.36387400
370.00	3.57883100	2.31147400
375.00	3.56704200	2.26638600
380.00	3.55852500	2.22400700
385.00	3.54977300	2.18251200
390.00	3.53782700	2.14281300
395.00	3.52156100	2.10719100
400.00	3.50163300	2.07778400
405.00	3.47966100	2.05579200
410.00	3.45742000	2.04144300
415.00	3.43639400	2.03430800
420.00	3.41765100	2.03365000
425.00	3.40188300	2.03866600
430.00	3.38951700	2.04862400
435.00	3.38082000	2.06292000
440.00	3.37599400	2.08109300
445.00	3.37525000	2.10280800
450.00	3.37887500	2.12783400
455.00	3.38729300	2.15599500
460.00	3.40112100	2.18710900
465.00	3.42121600	2.22088900
470.00	3.44871200	2.25680000
475.00	3.48498800	2.29386000
480.00	3.53143900	2.33109500
485.00	3.58962700	2.36445500
490.00	3.65992000	2.39082900
495.00	3.74125900	2.40554600
500.00	3.83023400	2.40388400
505.00	3.92090300	2.38253900
510.00	4.00572000	2.34120400
515.00	4.07751400	2.28327600
520.00	4.13157300	2.21504100
525.00	4.16664600	2.14374400
530.00	4.18451100	2.07568400
535.00	4.18871100	2.01519300
540.00	4.18285400	1.96508900
545.00	4.17150700	1.92510100
550.00	4.15669900	1.89521600
555.00	4.14201200	1.87521100
560.00	4.12858600	1.86382500
565.00	4.11775200	1.86006700
570.00	4.11055300	1.86299200
575.00	4.10786200	1.87171400
580.00	4.11046300	1.88537900
585.00	4.11910700	1.90312100
590.00	4.13453700	1.92400300
595.00	4.15747300	1.94695000
600.00	4.18858200	1.97069000
605.00	4.22839600	1.99370800
610.00	4.27720600	2.01421900
615.00	4.33493500	2.03019900
620.00	4.40099400	2.03947400
625.00	4.47417200	2.03988400
630.00	4.55259000	2.02950800
635.00	4.63375900	2.00692900
640.00	4.71475700	1.97147400
645.00	4.79252400	1.92336600
650.00	4.86420100	1.86372900
655.00	4.92744300	1.79445300
660.00	4.98063900	1.71792800
665.00	5.02299200	1.63673300
670.00	5.05445300	1.55335200
675.00	5.07557900	1.46996500
680.00	5.08734200	1.38832400
685.00	5.09093900	1.30972900
690.00	5.08764200	1.23505400
695.00	5.07868900	1.16481500
700.00	5.06521500	1.09924600
705.00	5.04822200	1.03837000
710.00	5.02856100	0.98207000
715.00	5.00694300	0.93013000
720.00	4.98395200	0.88228500
725.00	4.96005600	0.83824100
730.00	4.93562700	0.79769700
735.00	4.91096000	0.76035800
740.00	4.88628100	0.72594300
745.00	4.86176800	0.69418800
750.00	4.83755000	0.66485000
755.00	4.81372900	0.63770600
760.00	4.79037500	0.61255300
765.00	4.76754000	0.58920800
770.00	4.74525700	0.56750500
775.00	4.72354900	0.54729600
780.00	4.70242600	0.52844700
785.00	4.68189300	0.51083800
790.00	4.66194600	0.49436100
795.00	4.64258000	0.47891800
800.00	4.62378400	0.46442200
805.00	4.60554500	0.45079500
810.00	4.58785000	0.43796600
815.00	4.57068400	0.42587100
820.00	4.55402900	0.41445200
825.00	4.53725100	0.40344700
