;  Optical constants for InP
; 
;   taken from:
;
;   'Handbook of Optical Constants of Solids', Ed. by Edward D. Palik,
;   Academic Press, Inc., 1985.
;   
;    Lambda (nm)            n            k
;-----------------------------------------
103.32	0.77100000	0.89900000
107.81	0.78100000	0.94600000
112.71	0.79300000	0.99600000
118.08	0.79700000	1.05600000
123.98	0.80600000	1.15400000
125.23	0.82000000	1.17200000
126.51	0.83200000	1.18500000
127.81	0.84000000	1.19800000
129.15	0.84700000	1.21000000
130.51	0.85200000	1.22500000
131.89	0.85900000	1.23700000
133.31	0.86100000	1.25300000
134.76	0.86500000	1.26900000
136.24	0.86800000	1.28700000
137.76	0.87200000	1.30400000
139.30	0.87400000	1.32400000
140.89	0.87500000	1.34600000
142.51	0.87700000	1.37500000
144.16	0.88500000	1.40300000
145.86	0.89400000	1.43300000
147.60	0.90900000	1.45800000
149.37	0.91900000	1.48600000
151.19	0.93400000	1.51200000
153.06	0.94700000	1.53900000
154.97	0.96000000	1.56600000
156.94	0.97300000	1.59400000
158.95	0.98400000	1.62700000
161.01	1.00000000	1.66400000
163.13	1.02200000	1.70000000
165.31	1.04600000	1.73600000
167.54	1.07200000	1.77100000
169.84	1.10000000	1.81200000
172.19	1.13600000	1.84700000
174.62	1.17400000	1.88200000
177.11	1.21500000	1.91500000
179.68	1.26100000	1.94100000
182.32	1.30700000	1.96600000
185.05	1.35400000	1.98600000
187.85	1.40200000	2.99400000
190.74	1.45300000	2.01000000
193.72	1.49600000	2.00800000
196.79	1.52600000	1.99100000
199.97	1.52500000	1.98200000
203.25	1.50800000	2.00500000
206.63	1.50000000	2.06300000
206.63	1.33600000	2.11300000
208.72	1.31800000	2.15100000
210.14	1.30100000	2.18300000
210.14	1.51600000	2.13000000
212.29	1.30100000	2.23900000
213.76	1.29900000	2.28000000
213.76	1.54400000	2.19100000
215.99	1.31100000	2.34100000
217.51	1.32500000	2.38300000
217.51	1.57300000	2.26700000
219.82	1.35200000	2.44600000
221.39	1.37500000	2.48400000
221.39	1.61600000	2.34900000
223.79	1.40700000	2.53200000
225.42	1.42600000	2.56200000
227.90	1.44700000	2.61100000
229.59	1.45500000	2.65200000
232.17	1.46700000	2.73400000
233.93	1.48200000	2.80200000
236.60	1.51900000	2.92200000
238.42	1.55800000	3.01600000
241.21	1.64900000	3.17600000
243.10	1.74500000	3.29100000
245.99	1.95800000	3.43800000
247.96	2.13100000	3.49500000
250.97	2.39100000	3.51900000
253.02	2.54600000	3.51400000
256.16	2.78200000	3.52300000
258.29	2.98400000	3.51700000
261.56	3.34400000	3.40100000
263.79	3.56000000	3.22300000
267.20	3.75700000	2.87700000
269.52	3.80000000	2.63700000
273.08	3.75900000	2.33500000
275.51	3.69700000	2.18600000
279.23	3.59300000	2.02400000
281.77	3.52700000	1.94800000
285.67	3.43700000	1.86500000
288.33	3.38400000	1.82600000
292.41	3.31400000	1.78200000
295.19	3.27500000	1.76200000
299.47	3.22400000	1.74200000
302.39	3.19600000	1.73500000
306.88	3.16100000	1.73000000
309.95	3.14100000	1.73000000
314.67	3.11900000	1.73700000
317.90	3.10800000	1.74400000
322.87	3.09700000	1.76000000
326.26	3.09500000	1.77300000
331.50	3.09700000	1.79700000
335.08	3.10300000	1.81600000
340.60	3.11800000	1.84800000
344.39	3.13300000	1.87200000
350.23	3.16500000	1.91500000
354.23	3.19300000	1.94800000
360.41	3.24800000	2.00900000
364.65	3.29900000	2.06000000
371.20	3.42600000	2.15900000
375.70	3.57600000	2.20900000
382.65	3.81900000	2.17700000
387.44	3.97600000	2.14300000
394.84	4.29600000	1.96600000
399.94	4.41500000	1.73500000
407.83	4.43300000	1.41400000
413.27	4.39500000	1.24700000
421.70	4.31400000	1.06100000
427.52	4.25600000	0.96400000
436.55	4.17300000	0.84700000
442.79	4.12100000	0.78600000
452.48	4.04800000	0.71200000
459.19	4.00400000	0.66700000
469.62	3.94000000	0.61400000
476.85	3.90300000	0.57900000
488.11	3.85100000	0.53600000
495.92	3.81800000	0.51100000
508.11	3.77300000	0.47900000
516.58	3.74500000	0.45700000
529.83	3.70600000	0.43100000
539.04	3.68200000	0.41600000
553.48	3.64900000	0.39300000
563.54	3.62900000	0.38000000
579.35	3.60200000	0.35800000
590.38	3.58500000	0.34700000
607.75	3.56300000	0.32900000
619.90	3.54900000	0.31700000
639.07	3.53000000	0.29900000
652.53	3.51700000	0.29300000
673.80	3.50100000	0.27800000
688.78	3.49200000	0.27000000
712.53	3.48100000	0.25500000
729.29	3.47600000	0.24200000
755.98	3.46900000	0.22500000
774.88	3.46700000	0.21800000
805.06	3.45900000	0.20900000
826.53	3.45600000	0.20300000
925.22	3.39620000	0.03550000
930.08	3.39050000	0.01090000
934.99	3.38500000	0.00590000
939.95	3.37970000	0.00318000
944.97	3.37460000	0.00096700
950.04	3.36960000	0.00052700
953.69	3.36200000	0.00028100
955.90	3.36470000	0.00000000
960.34	3.36000000	0.00007390
961.09	3.35300000	0.00000000
965.58	3.35550000	0.00003920
968.59	3.34500000	0.00002460
970.87	3.35100000	0.00000000
975.45	3.34670000	0.00001130
976.22	3.33700000	0.00000000
983.97	3.33000000	0.00000000
991.84	3.32400000	0.00000000
999.84	3.31800000	0.00000000
1000.65	3.32690000	0.00000000
1007.97	3.31200000	0.00000000
1016.23	3.30700000	0.00000000
1024.63	3.30200000	0.00000000
1033.17	3.29700000	0.00000000
1078.09	3.27400000	0.00000000
1100.09	3.26870000	0.00000000
1127.09	3.25400000	0.00000000
1180.76	3.23600000	0.00000000
1200.19	3.23120000	0.00000000
1239.80	3.22000000	0.00000000
1300.40	3.20530000	0.00000000
1305.05	3.20500000	0.00000000
1377.56	3.19100000	0.00000000
1400.43	3.18640000	0.00000000
1458.59	3.17800000	0.00000000
1549.75	3.16700000	0.00000000
1653.07	3.15600000	0.00000000
1771.14	3.14600000	0.00000000
1907.38	3.13700000	0.00000000
2066.33	3.12900000	0.00000000
2254.18	3.12100000	0.00000000
2479.60	3.11400000	0.00000000
