;UO 
;UO Ir.ASC: Values of n and k for polycrystalline iridium from
;UO various references in HOCI (pg. 298).  References are 7, 8.
;UO 
;UO From HANDBOOK OF OPTICAL CONSTANTS IN SOLIDS edited by Edward D.
;UO Palik. Copyright (c) 1985 by Academic Press, Inc. Reproduced by
;UO permission of the publisher.
;UO -------------------------------------------------------------
;UO        nm        n        k
;UO -------------------------------------------------------------
;N  3
;L    Wavelength[nm]        n        k
103.30	1.24000000	1.08000000
106.90	1.28000000	1.12000000
108.80	1.31000000	1.13000000
110.70	1.34000000	1.14000000
112.70	1.38000000	1.13000000
114.80	1.41000000	1.12000000
117.00	1.43000000	1.09000000
119.20	1.44000000	1.07000000
121.60	1.45000000	1.04000000
124.00	1.45000000	1.01000000
125.20	1.44000000	1.00000000
126.50	1.44000000	0.99000000
127.80	1.43000000	0.98000000
129.10	1.42000000	0.97000000
130.50	1.40000000	0.96000000
131.90	1.39000000	0.95000000
133.30	1.38000000	0.95000000
134.80	1.36000000	0.95000000
136.20	1.35000000	0.94000000
137.80	1.33000000	0.94000000
139.30	1.31000000	0.94000000
140.90	1.29000000	0.95000000
142.50	1.27000000	0.95000000
144.20	1.26000000	0.96000000
145.90	1.24000000	0.97000000
147.60	1.22000000	0.98000000
149.40	1.20000000	0.99000000
151.20	1.18000000	1.00000000
153.10	1.15000000	1.01000000
155.00	1.13000000	1.03000000
156.90	1.11000000	1.05000000
159.00	1.08000000	1.06000000
161.00	1.05000000	1.10000000
163.10	1.03000000	1.14000000
165.30	1.03000000	1.18000000
167.50	1.02000000	1.20000000
169.80	1.00000000	1.23000000
172.20	0.99000000	1.27000000
174.60	0.98000000	1.30000000
177.10	0.97000000	1.34000000
179.70	0.96000000	1.38000000
182.30	0.95000000	1.42000000
185.10	0.95000000	1.46000000
187.90	0.94000000	1.50000000
190.70	0.95000000	1.54000000
193.70	0.94000000	1.59000000
196.80	0.94000000	1.63000000
200.00	0.94000000	1.68000000
203.30	0.94000000	1.73000000
206.60	0.95000000	1.78000000
210.10	0.97000000	1.82000000
213.80	0.96000000	1.86000000
217.50	0.97000000	1.92000000
221.40	0.98000000	1.98000000
225.40	0.99000000	2.03000000
229.60	1.00000000	2.09000000
233.90	1.02000000	2.15000000
238.40	1.04000000	2.22000000
243.10	1.07000000	2.29000000
248.00	1.10000000	2.35000000
253.00	1.13000000	2.42000000
258.30	1.18000000	2.49000000
263.80	1.24000000	2.56000000
269.50	1.31000000	2.60000000
275.50	1.37000000	2.65000000
281.80	1.45000000	2.68000000
288.30	1.51000000	2.70000000
295.20	1.58000000	2.71000000
302.40	1.62000000	2.70000000
310.00	1.64000000	2.68000000
317.90	1.64000000	2.67000000
326.30	1.61000000	2.69000000
335.10	1.57000000	2.72000000
344.40	1.52000000	2.81000000
354.20	1.50000000	2.93000000
364.70	1.53000000	3.05000000
375.70	1.57000000	3.15000000
387.50	1.62000000	3.26000000
400.00	1.68000000	3.35000000
413.30	1.73000000	3.43000000
427.50	1.77000000	3.51000000
442.80	1.81000000	3.61000000
459.20	1.85000000	3.73000000
476.90	1.91000000	3.86000000
495.90	1.98000000	4.00000000
516.60	2.07000000	4.14000000
539.10	2.18000000	4.26000000
563.60	2.29000000	4.38000000
590.40	2.40000000	4.48000000
619.90	2.50000000	4.57000000
652.60	2.57000000	4.68000000
688.80	2.64000000	4.81000000
729.30	2.69000000	4.92000000
774.90	2.68000000	5.08000000
826.60	2.65000000	5.39000000
885.60	2.72000000	5.74000000
953.70	2.85000000	6.07000000
1033.00	2.96000000	6.41000000
1127.00	3.04000000	6.84000000
1240.00	3.15000000	7.31000000
1378.00	3.19000000	7.88000000
1550.00	3.14000000	8.61000000
1771.00	2.93000000	9.78000000
2066.00	2.79000000	11.60000000
2480.00	2.98000000	14.10000000
