; From SOPRA S.A. http://www.sopra-sa.com/indices.htm
; Filename    Symbol               Range (nm)     Description
; ITO2        ITO                 250      850    Indium Tin Oxide
; lambda/nm       n         k
250.00	2.35046100	0.21133800
260.00	2.35517100	0.18012600
270.00	2.35131400	0.15441000
280.00	2.34142900	0.13317200
290.00	2.32736600	0.11560200
300.00	2.31048200	0.10105500
310.00	2.29176900	0.08901000
320.00	2.27195600	0.07904600
330.00	2.25157800	0.07082100
340.00	2.23102500	0.06405400
350.00	2.21057800	0.05851300
360.00	2.19043900	0.05400600
370.00	2.17075300	0.05037400
380.00	2.15161600	0.04748400
390.00	2.13309200	0.04522500
400.00	2.11522000	0.04350400
410.00	2.09802200	0.04224000
420.00	2.08150500	0.04136600
430.00	2.06566300	0.04082700
440.00	2.05048800	0.04057300
450.00	2.03596400	0.04056300
460.00	2.02207000	0.04076100
470.00	2.00878500	0.04113800
480.00	1.99608500	0.04166600
490.00	1.98394700	0.04232300
500.00	1.97234500	0.04309000
510.00	1.96125600	0.04395000
520.00	1.95065600	0.04488900
530.00	1.94052100	0.04589300
540.00	1.93082800	0.04695200
550.00	1.92155600	0.04805700
560.00	1.91268400	0.04919900
570.00	1.90419200	0.05037000
580.00	1.89606100	0.05156500
590.00	1.88827300	0.05277900
600.00	1.88081000	0.05400600
610.00	1.87365600	0.05524200
620.00	1.86679600	0.05648400
630.00	1.86021400	0.05772900
640.00	1.85389800	0.05897400
650.00	1.84783400	0.06021600
660.00	1.84200900	0.06145400
670.00	1.83641200	0.06268600
680.00	1.83103100	0.06391000
690.00	1.82585700	0.06512600
700.00	1.82087900	0.06633100
710.00	1.81608900	0.06752600
720.00	1.81147600	0.06870900
730.00	1.80703300	0.06987900
740.00	1.80275200	0.07103600
750.00	1.79862600	0.07218000
760.00	1.79464700	0.07331000
770.00	1.79080800	0.07442600
780.00	1.78710400	0.07552800
790.00	1.78352800	0.07661500
800.00	1.78007500	0.07768800
810.00	1.77673900	0.07874600
820.00	1.77351500	0.07978900
830.00	1.77039900	0.08081800
840.00	1.76738500	0.08183200
850.00	1.76447000	0.08283100
