;  Optical constants for MgF2 - ordinary ray
; 
;   taken from:
;
;   'Handbook of Optical Constants of Solids II', Ed. by Edward D. Palik,
;   Academic Press, Inc., 1991.
;   
;    Lambda (nm)            n            k
;-----------------------------------------
100.80	1.26900000	0.45100000
101.62	1.23100000	0.49100000
102.46	1.20700000	0.54200000
103.32	1.35100000	0.72300000
104.18	1.60300000	0.95300000
105.07	1.75900000	1.07300000
105.97	1.87200000	1.02400000
106.88	2.20100000	0.80700000
107.81	2.25800000	0.68300000
108.75	2.24500000	0.52400000
109.72	2.21900000	0.33200000
110.70	2.12300000	0.22000000
111.69	2.01000000	0.11000000
112.71	1.95600000	0.05800000
113.74	1.90400000	0.00000000
114.80	1.88300000	0.00000000
115.87	1.81200000	0.00000000
116.96	1.77300000	0.00000000
118.08	1.73400000	0.00000000
119.21	1.69400000	0.00000000
120.37	1.66000000	0.00000000
121.55	1.63000000	0.00000000
122.75	1.61500000	0.00000000
123.98	1.60100000	0.00000000
124.99	1.58800000	0.00000000
130.00	1.55500000	0.00000000
140.00	1.51300000	0.00000000
149.99	1.48400000	0.00000000
160.00	1.46400000	0.00000000
170.00	1.45100000	0.00000000
178.00	1.43975000	0.00000000
179.99	1.44000000	0.00000000
184.99	1.43424000	0.00000000
189.98	1.43000000	0.00000000
200.00	1.42309000	0.00000000
209.99	1.41754000	0.00000000
219.98	1.41291000	0.00000000
229.98	1.40900000	0.00000000
239.99	1.40567000	0.00000000
250.01	1.40280000	0.00000000
259.97	1.40030000	0.00000000
269.99	1.39812000	0.00000000
279.99	1.39620000	0.00000000
290.01	1.39450000	0.00000000
299.98	1.39298000	0.00000000
309.95	1.39162000	0.00000000
319.95	1.39040000	0.00000000
330.00	1.38930000	0.00000000
339.95	1.38830000	0.00000000
350.03	1.38739000	0.00000000
359.99	1.38656000	0.00000000
369.98	1.38580000	0.00000000
379.96	1.38510000	0.00000000
390.00	1.38446000	0.00000000
399.94	1.38387000	0.00000000
419.99	1.38281000	0.00000000
439.96	1.38189000	0.00000000
460.04	1.38110000	0.00000000
479.99	1.38040000	0.00000000
499.92	1.37978000	0.00000000
520.05	1.37923000	0.00000000
539.98	1.37873000	0.00000000
559.98	1.37829000	0.00000000
579.89	1.37789000	0.00000000
600.10	1.37752000	0.00000000
619.90	1.37718000	0.00000000
640.06	1.37688000	0.00000000
659.82	1.37659000	0.00000000
680.09	1.37633000	0.00000000
700.06	1.37608000	0.00000000
719.98	1.37585000	0.00000000
740.18	1.37563000	0.00000000
760.15	1.37543000	0.00000000
779.75	1.37524000	0.00000000
799.87	1.37506000	0.00000000
819.97	1.37488000	0.00000000
839.97	1.37472000	0.00000000
859.78	1.37456000	0.00000000
879.91	1.37440000	0.00000000
899.71	1.37426000	0.00000000
919.73	1.37411000	0.00000000
939.95	1.37398000	0.00000000
959.60	1.37384000	0.00000000
980.08	1.37371000	0.00000000
999.84	1.37358000	0.00000000
1020.41	1.37346000	0.00000000
1041.85	1.37333000	0.00000000
1064.21	1.37319000	0.00000000
1086.59	1.37306000	0.00000000
1110.93	1.37292000	0.00000000
1136.39	1.37277000	0.00000000
1163.04	1.37263000	0.00000000
1190.97	1.37247000	0.00000000
1219.08	1.37231000	0.00000000
1249.92	1.37215000	0.00000000
1281.98	1.37197000	0.00000000
1315.72	1.37179000	0.00000000
1351.28	1.37160000	0.00000000
1388.82	1.37140000	0.00000000
1428.51	1.37118000	0.00000000
1470.53	1.37096000	0.00000000
1515.09	1.37071000	0.00000000
1562.44	1.37045000	0.00000000
1612.85	1.37017000	0.00000000
1666.62	1.36986000	0.00000000
1724.10	1.36953000	0.00000000
1785.68	1.36917000	0.00000000
1851.83	1.36877000	0.00000000
1923.07	1.36833000	0.00000000
2000.00	1.36784000	0.00000000
2040.82	1.36757000	0.00000000
2083.35	1.36729000	0.00000000
2127.68	1.36699000	0.00000000
2173.94	1.36667000	0.00000000
2222.26	1.36633000	0.00000000
2272.78	1.36597000	0.00000000
2325.64	1.36559000	0.00000000
2381.03	1.36518000	0.00000000
2439.11	1.36474000	0.00000000
