;  Optical constants for MgO
; 
;   taken from:
;
;   'Handbook of Optical Constants of Solids II', Ed. by Edward D. Palik,
;   Academic Press, Inc., 1991.
;   
;    Lambda (nm)            n            k
;-----------------------------------------
102.46	1.60300000	0.77000000
103.32	1.56500000	0.76500000
104.18	1.52000000	0.76700000
105.07	1.47300000	0.78700000
106.42	1.39700000	0.83900000
106.88	1.37000000	0.89000000
107.81	1.37100000	1.00000000
108.75	1.40900000	1.08100000
109.72	1.46800000	1.16100000
110.70	1.55500000	1.21000000
111.19	1.60100000	1.22000000
111.69	1.64600000	1.23000000
112.71	1.73500000	1.22800000
113.74	1.81400000	1.20200000
114.80	1.87700000	1.16600000
118.08	1.99900000	1.04100000
121.55	2.04500000	0.92100000
123.98	2.06100000	0.86700000
126.51	2.07400000	0.81900000
127.81	2.07900000	0.79800000
130.51	2.09100000	0.76100000
133.31	2.10300000	0.72800000
137.76	2.13000000	0.67900000
140.89	2.14700000	0.64200000
145.86	2.16000000	0.58700000
151.19	2.17100000	0.54500000
153.06	2.16800000	0.53200000
154.97	2.15400000	0.53000000
155.95	2.14500000	0.53900000
156.94	2.13700000	0.55800000
157.94	2.12700000	0.58900000
158.34	2.12600000	0.61100000
158.95	2.13200000	0.65100000
159.97	2.18000000	0.73100000
161.01	2.27000000	0.81300000
161.43	2.32700000	0.85100000
161.85	2.38900000	0.88500000
162.28	2.49800000	0.93600000
162.49	2.57400000	0.94900000
162.70	2.66500000	0.94400000
162.92	2.75300000	0.91200000
163.13	2.83900000	0.86600000
163.35	2.92200000	0.80000000
163.56	2.99400000	0.71100000
163.78	3.04800000	0.60000000
164.00	3.06100000	0.47400000
164.21	3.03500000	0.36000000
164.43	2.99900000	0.27200000
164.65	2.94400000	0.20400000
164.87	2.89200000	0.14900000
165.31	2.79300000	0.07600000
165.75	2.70100000	0.03900000
166.42	2.60300000	0.01800000
167.54	2.49400000	0.00200000
168.68	2.41900000	0.00000000
169.84	2.36300000	0.00000000
170.30	2.34600000	0.00013600
171.01	2.31900000	0.00000000
172.19	2.28100000	0.00007600
172.55	2.26900000	0.00006870
173.40	2.24800000	0.00000000
173.64	2.24100000	0.00005530
174.62	2.22000000	0.00000000
175.61	2.19800000	0.00004190
175.86	2.19600000	0.00000000
177.11	2.17600000	0.00003700
179.68	2.14100000	0.00000000
179.94	2.13800000	0.00002860
182.32	2.11000000	0.00000000
185.05	2.08400000	0.00002000
187.85	2.06000000	0.00000000
190.74	2.03900000	0.00001390
193.72	2.02000000	0.00000000
199.97	1.98600000	0.00001110
206.63	1.95800000	0.00001000
213.76	1.93300000	0.00000850
221.39	1.91100000	0.00000700
225.42	1.90100000	0.00000600
229.59	1.89200000	0.00000500
238.42	1.87400000	0.00000370
243.58	1.86500000	0.00000320
247.96	1.85800000	0.00000310
261.01	1.84000000	0.00000000
275.51	1.82400000	0.00000000
291.72	1.81000000	0.00000000
309.95	1.79800000	0.00000000
330.61	1.78500000	0.00000000
351.12	1.77680000	0.00000000
355.55	1.77550000	0.00000085
360.93	1.77320000	0.00000058
361.14	1.77318000	0.00000056
364.97	1.77186000	0.00000049
382.07	1.76680000	0.00000028
386.71	1.76550000	0.00000024
393.34	1.76380000	0.00000022
404.63	1.76104000	0.00000020
430.94	1.75570000	0.00000017
435.78	1.75471000	0.00000017
457.83	1.75120000	0.00000014
477.95	1.74830000	0.00000012
486.01	1.74711000	0.00000010
487.92	1.74690000	0.00000010
499.92	1.74540000	0.00000008
502.35	1.74530000	0.00000008
508.53	1.74446000	0.00000007
514.44	1.74390000	0.00000007
546.17	1.74077000	0.00000000
589.26	1.73737000	0.00000000
632.87	1.73460000	0.00000000
643.72	1.73400000	0.00000000
656.33	1.73335000	0.00000000
667.64	1.73277000	0.00000000
690.70	1.73191000	0.00000000
706.44	1.73101000	0.00000000
767.68	1.72872000	0.00000000
999.84	1.72290000	0.00000000
1013.74	1.72259000	0.00000000
1059.66	1.72170000	0.00000000
1128.12	1.72059000	0.00000000
1318.94	1.71770000	0.00000007
1367.23	1.71715000	0.00000000
1499.88	1.71530000	0.00000000
1529.48	1.71496000	0.00000000
1549.94	1.71470000	0.00000000
1693.25	1.71281000	0.00000000
1709.13	1.71258000	0.00000000
1813.10	1.71108000	0.00000000
1970.13	1.70885000	0.00000000
2000.00	1.70850000	0.00000000
2249.27	1.70470000	0.00000000
2325.21	1.70350000	0.00000000
