;  Optical constants for Mo
; 
;   taken from:
;
;   'Handbook of Optical Constants of Solids', Ed. by Edward D. Palik,
;   Academic Press, Inc., 1985.
;   
;    Lambda (nm)            n            k
;-----------------------------------------
101.62	1.26000000	0.95300000
103.32	1.26000000	0.92100000
105.07	1.25000000	0.88600000
106.88	1.23000000	0.84500000
108.75	1.18000000	0.80200000
110.70	1.12000000	0.78200000
112.71	1.05000000	0.77400000
114.80	0.97700000	0.79100000
116.96	0.90900000	0.83500000
119.21	0.85900000	0.88100000
121.55	0.81200000	0.93000000
123.98	0.77000000	0.98700000
126.51	0.73500000	1.05000000
129.15	0.70700000	1.12000000
131.89	0.68500000	1.19000000
134.76	0.67000000	1.25000000
137.76	0.65200000	1.33000000
140.89	0.64700000	1.41000000
144.16	0.64900000	1.49000000
147.60	0.65900000	1.57000000
151.19	0.67200000	1.65000000
154.97	0.68500000	1.73000000
156.94	0.69700000	1.77000000
158.95	0.71100000	1.81000000
161.01	0.72600000	1.85000000
163.13	0.74500000	1.90000000
165.31	0.78100000	1.93000000
167.54	0.80800000	1.95000000
169.84	0.81600000	1.96000000
172.19	0.81300000	1.98000000
174.62	0.80800000	2.00000000
177.11	0.79800000	2.04000000
179.68	0.79100000	2.08000000
182.32	0.78400000	2.12000000
185.05	0.77700000	2.18000000
187.85	0.77900000	2.24000000
190.74	0.78300000	2.30000000
193.72	0.78900000	2.36000000
196.79	0.79800000	2.43000000
199.97	0.81300000	2.50000000
203.25	0.83600000	2.57000000
206.63	0.85000000	2.64000000
210.14	0.87300000	2.72000000
213.76	0.89500000	2.80000000
217.51	0.92400000	2.89000000
221.39	0.95900000	2.99000000
225.42	1.00000000	3.09000000
229.59	1.06000000	3.20000000
233.93	1.13000000	3.31000000
238.42	1.22000000	3.42000000
243.10	1.33000000	3.53000000
247.96	1.46000000	3.62000000
253.02	1.61000000	3.70000000
258.29	1.75000000	3.76000000
263.79	1.90000000	3.81000000
269.52	2.06000000	3.84000000
275.51	2.21000000	3.87000000
281.77	2.39000000	3.88000000
288.33	2.59000000	3.86000000
295.19	2.77000000	3.77000000
302.39	2.91000000	3.67000000
309.95	3.01000000	3.51000000
317.90	3.04000000	3.40000000
326.26	3.04000000	3.31000000
335.08	3.04000000	3.27000000
344.39	3.05000000	3.24000000
354.23	3.06000000	3.21000000
364.65	3.06000000	3.19000000
375.70	3.06000000	3.18000000
387.44	3.05000000	3.18000000
399.94	3.03000000	3.22000000
413.27	3.04000000	3.27000000
427.52	3.05000000	3.33000000
442.79	3.08000000	3.42000000
459.19	3.13000000	3.51000000
476.85	3.22000000	3.61000000
495.92	3.36000000	3.73000000
516.58	3.59000000	3.78000000
539.04	3.79000000	3.61000000
563.54	3.76000000	3.41000000
590.38	3.68000000	3.45000000
619.90	3.68000000	3.52000000
652.53	3.74000000	3.58000000
688.78	3.81000000	3.58000000
729.29	3.84000000	3.51000000
774.88	3.77000000	3.41000000
826.53	3.53000000	3.30000000
885.57	3.15000000	3.40000000
953.69	2.77000000	3.74000000
1033.17	2.44000000	4.22000000
1127.09	2.16000000	4.85000000
1239.80	1.94000000	5.58000000
1377.56	1.74000000	6.48000000
1441.63	1.70000000	6.90000000
1511.95	1.64000000	7.35000000
1589.49	1.60000000	7.83000000
1675.41	1.52000000	8.38000000
1771.14	1.48000000	8.99000000
1878.48	1.43000000	9.67000000
1999.68	1.38000000	10.40000000
2137.59	1.34000000	11.30000000
2295.93	1.35000000	12.40000000
2479.60	1.37000000	13.50000000
