;  Optical constants for NaF
; 
;   taken from:
;
;   'Handbook of Optical Constants of Solids II', Ed. by Edward D. Palik,
;   Academic Press, Inc., 1991.
;   
;    Lambda (nm)            n            k
;-----------------------------------------
100.96	1.36000000	0.32200000
101.96	1.35900000	0.32100000
102.97	1.35800000	0.31600000
104.01	1.35800000	0.30700000
104.98	1.35100000	0.29700000
105.97	1.33300000	0.28000000
106.97	1.32000000	0.25400000
108.00	1.28900000	0.22700000
108.95	1.24700000	0.21300000
110.01	1.20400000	0.20500000
110.99	1.12800000	0.20400000
112.00	1.09300000	0.20900000
113.02	1.13800000	0.27200000
113.95	1.26900000	0.34200000
115.01	1.56700000	0.57800000
115.98	1.82200000	0.78400000
116.96	2.16700000	0.90000000
117.96	2.40400000	0.83300000
118.98	2.51100000	0.62900000
120.02	2.49300000	0.49100000
120.96	2.36000000	0.38200000
122.03	2.23000000	0.30800000
123.00	2.12200000	0.23600000
123.98	2.04400000	0.17100000
124.99	1.95800000	0.14000000
126.00	1.91100000	0.12000000
126.99	1.86600000	0.10700000
127.99	1.82200000	0.09600000
129.00	1.80000000	0.08700000
129.98	1.75600000	0.08000000
130.99	1.73600000	0.07600000
131.99	1.71700000	0.07200000
133.00	1.70000000	0.06900000
133.99	1.68300000	0.06400000
135.00	1.66700000	0.06100000
135.99	1.65200000	0.05800000
136.99	1.63800000	0.05600000
137.99	1.62500000	0.05400000
138.99	1.61300000	0.05200000
140.00	1.60100000	0.04900000
141.00	1.59100000	0.04800000
141.98	1.58000000	0.04700000
143.00	1.57100000	0.04500000
144.00	1.56200000	0.04400000
144.99	1.55400000	0.04200000
146.00	1.54600000	0.03900000
146.98	1.53900000	0.03800000
147.98	1.53200000	0.03600000
149.00	1.52600000	0.03500000
149.99	1.52000000	0.03300000
150.99	1.51400000	0.03200000
151.99	1.50900000	0.03100000
152.99	1.50500000	0.03000000
153.99	1.50000000	0.02800000
154.97	1.49700000	0.02700000
155.99	1.49300000	0.02700000
157.00	1.49000000	0.02700000
158.00	1.48700000	0.02600000
158.99	1.48400000	0.02600000
160.00	1.48200000	0.02300000
160.99	1.47900000	0.02300000
161.98	1.47700000	0.02300000
162.98	1.47600000	0.02300000
164.00	1.47400000	0.02300000
185.99	1.39300000	0.00000000
193.00	1.38500000	0.00000000
198.97	1.38050000	0.00000000
202.98	1.37720000	0.00000000
205.98	1.37450000	0.00000000
209.99	1.37180000	0.00000000
213.98	1.36910000	0.00000000
218.97	1.36650000	0.00000000
226.99	1.36300000	0.00000000
231.00	1.36060000	0.00000000
236.97	1.35860000	0.00000000
250.01	1.34200000	0.00000000
254.01	1.35250000	0.00000000
257.01	1.35120000	0.00000000
259.97	1.34200000	0.00000000
264.46	1.34910000	0.00000000
269.99	1.34100000	0.00000000
274.96	1.34690000	0.00000000
279.99	1.34100000	0.00000000
290.01	1.34000000	0.00000000
299.98	1.33900000	0.00000000
301.95	1.34170000	0.00000000
313.00	1.34010000	0.00000000
319.95	1.33700000	0.00000000
330.00	1.33600000	0.00000000
339.95	1.33500000	0.00000000
349.93	1.33400000	0.00000000
359.99	1.33400000	0.00000000
366.48	1.33420000	0.00000000
369.98	1.33300000	0.00000000
379.96	1.33200000	0.00000000
390.00	1.33100000	0.00000000
399.94	1.33100000	0.00000000
405.03	1.33140000	0.00000000
435.02	1.33000000	0.00000000
450.02	1.32700000	0.00000000
499.92	1.32500000	0.00000000
545.93	1.32600000	0.00000000
545.93	1.32580000	0.00000000
550.04	1.32100000	0.00000000
550.04	1.30000000	0.00000000
578.00	1.32510000	0.00000000
599.81	1.32100000	0.00000000
700.06	1.31900000	0.00000000
799.87	1.31700000	0.00000000
799.87	1.32270000	0.00000000
899.71	1.31600000	0.00000000
999.84	1.31600000	0.00000000
1499.88	1.31400000	0.00000000
2000.00	1.31300000	0.00000000
