;  Optical constants for Nb
; 
;   taken from:
;
;   'Handbook of Optical Constants of Solids II', Ed. by Edward D. Palik,
;   Academic Press, Inc., 1991.
;   
;    Lambda (nm)            n            k
;-----------------------------------------
101.62	1.25000000	1.11000000
103.32	1.25000000	1.12000000
105.07	1.27000000	1.13000000
106.88	1.28000000	1.13000000
108.75	1.30000000	1.13000000
109.72	1.31000000	1.12000000
110.70	1.31000000	1.12000000
111.69	1.32000000	1.11000000
112.71	1.32000000	1.10000000
113.74	1.32000000	1.09000000
114.80	1.32000000	1.08000000
115.87	1.31000000	1.07000000
116.96	1.30000000	1.06000000
118.08	1.29000000	1.05000000
119.21	1.27000000	1.04000000
120.37	1.25000000	1.04000000
121.55	1.23000000	1.04000000
122.75	1.20000000	1.04000000
123.98	1.18000000	1.05000000
125.23	1.15000000	1.06000000
126.51	1.13000000	1.09000000
127.81	1.11000000	1.11000000
129.15	1.10000000	1.13000000
130.51	1.08000000	1.15000000
131.89	1.07000000	1.18000000
133.31	1.06000000	1.19000000
134.76	1.04000000	1.22000000
136.24	1.02000000	1.25000000
137.76	1.01000000	1.29000000
139.30	1.00000000	1.32000000
140.89	1.00000000	1.36000000
142.51	0.99000000	1.39000000
144.16	0.99000000	1.43000000
147.60	0.99000000	1.51000000
151.19	1.00000000	1.60000000
154.97	1.02000000	1.69000000
158.95	1.07000000	1.78000000
163.13	1.14000000	1.85000000
167.54	1.20000000	1.88000000
172.19	1.22000000	1.91000000
177.11	1.23000000	1.96000000
182.32	1.24000000	2.04000000
187.85	1.26000000	2.14000000
193.72	1.31000000	2.25000000
199.97	1.38000000	2.38000000
206.63	1.49000000	2.49000000
213.76	1.63000000	2.60000000
221.39	1.81000000	2.67000000
229.59	2.00000000	2.68000000
238.42	2.16000000	2.62000000
247.96	2.26000000	2.57000000
258.29	2.32000000	2.52000000
269.52	2.39000000	2.56000000
281.77	2.53000000	2.56000000
295.19	2.64000000	2.42000000
309.95	2.64000000	2.33000000
317.90	2.62000000	2.29000000
326.26	2.59000000	2.28000000
335.08	2.56000000	2.27000000
344.39	2.52000000	2.29000000
354.23	2.48000000	2.33000000
364.65	2.46000000	2.38000000
375.70	2.44000000	2.45000000
387.44	2.45000000	2.53000000
399.94	2.48000000	2.60000000
413.27	2.51000000	2.68000000
435.02	2.58000000	2.80000000
450.84	2.66000000	2.86000000
467.85	2.74000000	2.90000000
486.20	2.83000000	2.92000000
506.04	2.89000000	2.90000000
527.58	2.92000000	2.88000000
551.02	2.93000000	2.87000000
576.65	2.92000000	2.87000000
604.78	2.89000000	2.87000000
635.79	2.82000000	2.86000000
670.16	2.69000000	2.89000000
708.46	2.54000000	2.99000000
751.39	2.36000000	3.13000000
799.87	2.15000000	3.37000000
855.03	1.95000000	3.68000000
918.37	1.76000000	4.13000000
991.84	1.65000000	4.63000000
1078.09	1.55000000	5.18000000
1180.76	1.44000000	5.86000000
1305.05	1.35000000	6.70000000
1458.59	1.35000000	7.74000000
1653.07	1.41000000	9.00000000
1907.38	1.57000000	10.60000000
2254.18	1.83000000	12.70000000
