; From SOPRA S.A. http://www.sopra-sa.com/indices.htm
; Filename    Symbol               Range (nm)     Description
; NBSI-B      NbSi2               206    24797    Niobium Silicide (perpendicular to c axis)
; lambda/nm       n         k
206.64	0.97600000	2.69300000
208.38	1.05700100	2.65068700
210.14	1.15800000	2.61400000
211.94	1.25875000	2.57756200
213.77	1.33900000	2.53600000
215.63	1.36056300	2.47193800
217.52	1.35700000	2.41600000
219.44	1.34787500	2.40181300
221.40	1.33700000	2.40300000
223.40	1.33656300	2.40306300
225.43	1.34100000	2.40600000
227.50	1.34937500	2.41043700
229.60	1.36000000	2.41600000
231.75	1.37062500	2.42150000
233.93	1.38200000	2.42800000
236.16	1.39400000	2.43643800
238.43	1.40700000	2.44600000
240.75	1.42143700	2.45625000
243.11	1.43700000	2.46700000
245.52	1.45356200	2.47793700
247.97	1.47100000	2.48900000
250.48	1.48943800	2.50000000
253.03	1.50800000	2.51100000
255.64	1.52531300	2.52106200
258.30	1.54300000	2.53300000
261.02	1.56175000	2.55131300
263.80	1.58300000	2.57000000
266.63	1.61012500	2.58325000
269.53	1.63800000	2.59500000
272.49	1.66100000	2.60700000
275.52	1.68400000	2.62000000
278.62	1.71037500	2.63587500
281.78	1.73900000	2.65300000
285.02	1.76956300	2.67112500
288.34	1.80300000	2.68800000
291.73	1.84100000	2.70087500
295.20	1.88100000	2.71100000
298.76	1.92075000	2.71912500
302.40	1.96100000	2.72400000
306.14	2.00325000	2.72431300
309.96	2.04300000	2.72100000
313.89	2.07481300	2.71262500
317.91	2.10300000	2.70500000
322.04	2.12962500	2.70525000
326.28	2.15600000	2.70800000
330.63	2.18493700	2.71050000
335.10	2.21400000	2.71200000
339.69	2.24131200	2.70881200
344.40	2.26800000	2.70700000
349.25	2.29425000	2.71393800
354.24	2.32100000	2.72200000
359.38	2.34931300	2.72412500
364.66	2.37900000	2.72600000
370.11	2.41087500	2.73275000
375.71	2.44300000	2.73900000
381.49	2.47387500	2.73906300
387.45	2.50300000	2.73900000
393.60	2.52806200	2.74350000
399.95	2.55300000	2.75100000
406.51	2.58200000	2.76275000
413.28	2.61200000	2.77500000
420.29	2.63993800	2.78318800
427.54	2.67000000	2.79100000
435.04	2.70656300	2.80125000
442.80	2.74600000	2.81200000
450.86	2.78568700	2.82206200
459.20	2.82700000	2.83200000
467.87	2.87037500	2.84193700
476.87	2.91600000	2.85200000
486.22	2.96381300	2.86325000
495.94	3.01500000	2.87300000
506.06	3.07193800	2.87862500
516.60	3.13100000	2.88100000
527.60	3.18875000	2.88012500
539.07	3.24700000	2.87600000
551.05	3.30693700	2.86843700
563.57	3.36700000	2.85800000
576.68	3.42487500	2.84631300
590.41	3.48400000	2.83000000
604.81	3.55118800	2.80462500
619.93	3.61400000	2.77500000
635.82	3.65887500	2.74337500
652.55	3.69600000	2.71300000
670.19	3.73081300	2.68775000
688.81	3.76400000	2.66800000
708.49	3.79543700	2.65712500
729.32	3.83300000	2.65000000
751.43	3.88700000	2.64606300
774.91	3.95000000	2.63500000
799.90	4.02162500	2.60593700
826.57	4.09100000	2.56000000
855.07	4.15000000	2.49087500
885.61	4.19000000	2.41000000
918.41	4.19643700	2.32256300
953.73	4.17900000	2.24100000
991.88	4.13918700	2.18268800
1033.21	4.08700000	2.13800000
1078.13	4.04356200	2.10406300
1127.14	3.97700000	2.07800000
1180.81	3.84900000	2.04075000
1239.85	3.70000000	2.03800000
1305.11	3.55887500	2.12137500
1377.61	3.42200000	2.25400000
1458.65	3.29656200	2.41081200
1549.81	3.17900000	2.60800000
1653.14	3.06506300	2.85625000
1771.22	2.96400000	3.14700000
1907.46	2.89218700	3.45800000
2066.42	2.82400000	3.84100000
2254.28	2.70900000	4.34093700
2479.70	2.63800000	4.95600000
