; From SOPRA S.A. http://www.sopra-sa.com/indices.htm
; Filename    Symbol               Range (nm)     Description
; NBSI-A      NbSi2               206    24797    Niobium Silicide (parallel to c axis)
; lambda/nm       n         k
206.64	1.40000000	3.20000000
208.38	1.51925100	3.11356200
210.14	1.65500000	2.99600000
211.94	1.77875000	2.87443700
213.77	1.86200000	2.77600000
215.63	1.83962500	2.75287500
217.52	1.79300000	2.75700000
219.44	1.79318700	2.75487500
221.40	1.80600000	2.75500000
223.40	1.82018700	2.75475000
225.43	1.83800000	2.75400000
227.50	1.85831300	2.75175000
229.60	1.88000000	2.74800000
231.75	1.90193700	2.74193700
233.93	1.92300000	2.73500000
236.16	1.94100000	2.72843700
238.43	1.95800000	2.72200000
240.75	1.97575000	2.71593700
243.11	1.99300000	2.71000000
245.52	2.00906300	2.70393800
247.97	2.02400000	2.69800000
250.48	2.03775000	2.69218800
253.03	2.05000000	2.68700000
255.64	2.06012500	2.68287500
258.30	2.06900000	2.68000000
261.02	2.07750000	2.67843800
263.80	2.08500000	2.67900000
266.63	2.09062500	2.68256200
269.53	2.09600000	2.68900000
272.49	2.10237500	2.69875000
275.52	2.11000000	2.71100000
278.62	2.11956300	2.72493700
281.78	2.13100000	2.74100000
285.02	2.14443800	2.75987500
288.34	2.16000000	2.78000000
291.73	2.17743800	2.80025000
295.20	2.19800000	2.82000000
298.76	2.22468700	2.83775000
302.40	2.25200000	2.85500000
306.14	2.27300000	2.87256200
309.96	2.29500000	2.89100000
313.89	2.32512500	2.91212500
317.91	2.35700000	2.93300000
322.04	2.38462500	2.94931200
326.28	2.41400000	2.96700000
330.63	2.44956300	2.99393700
335.10	2.49000000	3.02000000
339.69	2.53737500	3.03600000
344.40	2.58600000	3.04700000
349.25	2.62950000	3.05431200
354.24	2.67200000	3.06000000
359.38	2.71581300	3.06787500
364.66	2.76000000	3.07400000
370.11	2.80556200	3.07512500
375.71	2.84900000	3.07300000
381.49	2.88625000	3.06700000
387.45	2.92000000	3.06100000
393.60	2.95206200	3.05850000
399.95	2.98100000	3.06000000
406.51	3.00431300	3.06818700
413.28	3.02700000	3.08000000
420.29	3.05306300	3.09306300
427.54	3.08300000	3.10800000
435.04	3.12006300	3.12462500
442.80	3.16000000	3.14300000
450.86	3.19793700	3.16187500
459.20	3.23900000	3.18500000
467.87	3.28537500	3.21800000
476.87	3.34100000	3.25400000
486.22	3.41168800	3.28950000
495.94	3.49400000	3.32000000
506.06	3.58800000	3.34018800
516.60	3.68900000	3.34900000
527.60	3.79325000	3.34356200
539.07	3.89800000	3.32400000
551.05	4.00106200	3.28768700
563.57	4.09700000	3.24000000
576.68	4.17812500	3.18537500
590.41	4.24900000	3.12400000
604.81	4.31206300	3.05431200
619.93	4.36600000	2.98600000
635.82	4.40887500	2.93175000
652.55	4.44500000	2.88100000
670.19	4.47825000	2.82612500
688.81	4.50800000	2.77100000
708.49	4.53706200	2.71631200
729.32	4.55900000	2.66400000
751.43	4.56418800	2.61643700
774.91	4.56500000	2.57300000
799.90	4.57375000	2.53512500
826.57	4.58100000	2.49900000
855.07	4.58256200	2.45956300
885.61	4.57500000	2.42200000
918.41	4.55168800	2.38837500
953.73	4.51800000	2.36300000
991.88	4.47668700	2.35025000
1033.21	4.42900000	2.35200000
1078.13	4.37593700	2.37225000
1127.14	4.32100000	2.40900000
1180.81	4.26993800	2.46556300
1239.85	4.21700000	2.53000000
1305.11	4.16556300	2.58337500
1377.61	4.09400000	2.65000000
1458.65	3.97556300	2.73181200
1549.81	3.82900000	2.87700000
1653.14	3.63937500	3.14237500
1771.22	3.48100000	3.50400000
1907.46	3.44006300	3.96625000
2066.42	3.46600000	4.50100000
2254.28	3.51200000	5.07331200
2479.70	3.65300000	5.70800000
