;  Optical constants for Ni
; 
;   taken from:
;
;   'Handbook of Optical Constants of Solids', Ed. by Edward D. Palik,
;   Academic Press, Inc., 1985.
;   
;    Lambda (nm)            n            k
;-----------------------------------------
101.21	1.07000000	0.71200000
103.32	1.07000000	0.71500000
105.52	1.07000000	0.71400000
107.81	1.05000000	0.71500000
110.20	1.04000000	0.71700000
112.71	1.01000000	0.72700000
114.80	0.99300000	0.74700000
116.96	0.97400000	0.75900000
119.21	0.95100000	0.80000000
121.55	0.94800000	0.83300000
123.98	0.94600000	0.86700000
126.51	0.94800000	0.89500000
129.15	0.94900000	0.92700000
131.89	0.95400000	0.95700000
134.76	0.95900000	0.98700000
137.76	0.96600000	1.01000000
140.89	0.97200000	1.05000000
144.16	0.98100000	1.08000000
147.60	0.99200000	1.11000000
151.19	1.00000000	1.13000000
154.97	1.01000000	1.15000000
158.95	1.02000000	1.18000000
163.13	1.02000000	1.21000000
167.54	1.03000000	1.24000000
172.19	1.03000000	1.27000000
177.11	1.03000000	1.30000000
182.32	1.02000000	1.35000000
187.85	1.01000000	1.40000000
193.72	1.01000000	1.46000000
199.97	1.00000000	1.54000000
210.14	1.02000000	1.67000000
213.76	1.04000000	1.73000000
217.51	1.06000000	1.78000000
221.39	1.09000000	1.83000000
225.42	1.12000000	1.88000000
229.59	1.16000000	1.94000000
233.93	1.21000000	1.99000000
238.42	1.27000000	2.04000000
243.10	1.33000000	2.07000000
247.96	1.40000000	2.10000000
253.02	1.47000000	2.11000000
258.29	1.53000000	2.11000000
263.79	1.59000000	2.10000000
269.52	1.63000000	2.09000000
275.51	1.67000000	2.07000000
281.77	1.71000000	2.06000000
288.33	1.73000000	2.03000000
295.19	1.74000000	2.01000000
302.39	1.74000000	1.99000000
309.95	1.73000000	1.98000000
317.90	1.72000000	1.98000000
326.26	1.69000000	1.99000000
335.08	1.66000000	2.02000000
344.39	1.64000000	2.07000000
354.23	1.63000000	2.11000000
364.65	1.62000000	2.17000000
375.70	1.61000000	2.23000000
387.44	1.61000000	2.30000000
399.94	1.61000000	2.36000000
413.27	1.61000000	2.44000000
427.52	1.62000000	2.52000000
442.79	1.62000000	2.61000000
459.19	1.64000000	2.71000000
476.85	1.66000000	2.81000000
495.92	1.67000000	2.93000000
516.58	1.71000000	3.06000000
539.04	1.75000000	3.19000000
563.54	1.80000000	3.33000000
590.38	1.85000000	3.48000000
619.90	1.93000000	3.65000000
635.79	1.98000000	3.74000000
652.53	2.02000000	3.82000000
670.16	2.08000000	3.91000000
688.78	2.14000000	4.00000000
708.46	2.21000000	4.09000000
729.29	2.28000000	4.18000000
751.39	2.36000000	4.25000000
774.88	2.43000000	4.31000000
799.87	2.48000000	4.38000000
826.53	2.53000000	4.47000000
855.03	2.59000000	4.55000000
885.57	2.65000000	4.63000000
918.37	2.69000000	4.73000000
953.69	2.74000000	4.85000000
991.84	2.80000000	4.97000000
1033.17	2.85000000	5.10000000
1078.09	2.91000000	5.24000000
1127.09	2.97000000	5.38000000
1180.76	3.01000000	5.55000000
1239.80	3.06000000	5.74000000
1305.05	3.11000000	5.98000000
1377.56	3.18000000	6.23000000
1458.59	3.27000000	6.51000000
1549.75	3.38000000	6.82000000
1653.07	3.49000000	7.13000000
1771.14	3.59000000	7.48000000
1907.38	3.69000000	7.92000000
2066.33	3.84000000	8.35000000
2254.18	3.90000000	8.92000000
2479.60	4.03000000	9.64000000
