; Refractive index spectrum for Ni by Rakic
;
; A. D. Rakić, A. B. Djurišic, J. M. Elazar, and M. L. Majewski. Optical properties of metallic films for vertical-cavity optoelectronic devices, <a href="http://dx.doi.org/10.1364/AO.37.005271"><i>Appl. Opt.</i> <b>37</b>, 5271-5283 (1998)</a>
;
; Fit of the experimental data from several sources to Brendel-Bormann (BB) model
;
; lambda/nm    n     k
206.60 	1.22406804 	1.67682476 
210.90 	1.23289766 	1.71742351 
215.28 	1.24653432 	1.75981674 
219.75 	1.26542524 	1.80294446 
224.32 	1.28976768 	1.84560022 
228.99 	1.31945603 	1.88649747 
233.75 	1.35405018 	1.92435646 
238.61 	1.39277366 	1.95800302 
243.57 	1.43454534 	1.98646722 
248.63 	1.47804343 	2.00906908 
253.80 	1.52179506 	2.02548015 
259.08 	1.56428105 	2.03575346 
264.46 	1.60404355 	2.04031908 
269.96 	1.63978498 	2.03994757 
275.57 	1.67044852 	2.03568725 
281.30 	1.69527410 	2.02878384 
287.15 	1.71382733 	2.02059182 
293.12 	1.72600209 	2.01248631 
299.21 	1.73200008 	2.00578257 
305.43 	1.73229218 	2.00166841 
311.78 	1.72756692 	2.00115253 
318.27 	1.71867144 	2.00503020 
324.88 	1.70654990 	2.01386612 
331.64 	1.69218360 	2.02799352 
338.53 	1.67653652 	2.04752760 
345.57 	1.66050944 	2.07239064 
352.75 	1.64490486 	2.10234562 
360.09 	1.63040395 	2.13703461 
367.57 	1.61755551 	2.17601816 
375.21 	1.60677582 	2.21881219 
383.01 	1.59835706 	2.26491975 
390.98 	1.59248182 	2.31385612 
399.10 	1.58924065 	2.36516682 
407.40 	1.58865060 	2.41843887 
415.87 	1.59067279 	2.47330658 
424.52 	1.59522794 	2.52945290 
433.34 	1.60220943 	2.58660780 
442.35 	1.61149372 	2.64454478 
451.55 	1.62294827 	2.70307640 
460.93 	1.63643740 	2.76204939 
470.52 	1.65182645 	2.82133994 
480.30 	1.66898449 	2.88084921 
490.28 	1.68778611 	2.94049939 
500.48 	1.70811236 	3.00023024 
510.88 	1.72985122 	3.05999609 
521.50 	1.75289768 	3.11976339 
532.34 	1.77715356 	3.17950861 
543.41 	1.80252722 	3.23921652 
554.71 	1.82893314 	3.29887879 
566.24 	1.85629146 	3.35849284 
578.01 	1.88452759 	3.41806090 
590.03 	1.91357167 	3.47758925 
602.30 	1.94335823 	3.53708762 
614.82 	1.97382577 	3.59656868 
627.60 	2.00491636 	3.65604763 
640.65 	2.03657536 	3.71554189 
653.96 	2.06875107 	3.77507083 
667.56 	2.10139452 	3.83465559 
681.44 	2.13445918 	3.89431886 
695.60 	2.16790075 	3.95408477 
710.07 	2.20167701 	4.01397878 
724.83 	2.23574758 	4.07402760 
739.90 	2.27007384 	4.13425908 
755.28 	2.30461876 	4.19470221 
770.98 	2.33934676 	4.25538702 
787.01 	2.37422365 	4.31634458 
803.37 	2.40921651 	4.37760694 
820.07 	2.44429359 	4.43920716 
837.12 	2.47942425 	4.50117921 
854.52 	2.51457892 	4.56355806 
872.29 	2.54972898 	4.62637958 
890.42 	2.58484673 	4.68968060 
908.93 	2.61990538 	4.75349885 
927.83 	2.65487893 	4.81787304 
947.12 	2.68974218 	4.88284279 
966.81 	2.72447071 	4.94844867 
986.91 	2.75904079 	5.01473220 
1007.43 	2.79342938 	5.08173588 
1028.37 	2.82761413 	5.14950317 
1049.75 	2.86157333 	5.21807854 
1071.57 	2.89528588 	5.28750744 
1093.85 	2.92873130 	5.35783638 
1116.59 	2.96188971 	5.42911288 
1139.80 	2.99474181 	5.50138553 
1163.50 	3.02726888 	5.57470403 
1187.69 	3.05945277 	5.64911916 
1212.38 	3.09127591 	5.72468284 
1237.58 	3.12272131 	5.80144813 
1263.31 	3.15377253 	5.87946929 
1289.57 	3.18441375 	5.95880177 
1316.38 	3.21462972 	6.03950223 
1343.75 	3.24440579 	6.12162861 
1371.69 	3.27372794 	6.20524011 
1400.20 	3.30258279 	6.29039722 
1429.31 	3.33095760 	6.37716178 
1459.03 	3.35884034 	6.46559695 
1489.36 	3.38621963 	6.55576727 
1520.32 	3.41308488 	6.64773865 
1551.93 	3.43942620 	6.74157843 
1584.19 	3.46523454 	6.83735536 
1617.13 	3.49050164 	6.93513962 
1650.75 	3.51522010 	7.03500286 
1685.06 	3.53938342 	7.13701818 
1720.10 	3.56298602 	7.24126016 
1755.85 	3.58602329 	7.34780485 
1792.36 	3.60849162 	7.45672981 
1829.62 	3.63038845 	7.56811404 
1867.66 	3.65171231 	7.68203808 
1906.48 	3.67246282 	7.79858390 
1946.12 	3.69264079 	7.91783499 
1986.58 	3.71224822 	8.03987627 
2027.88 	3.73128834 	8.16479415 
