; From SOPRA S.A. http://www.sopra-sa.com/indices.htm
; Filename    Symbol               Range (nm)     Description
; OS          Os                  206     2479    Osmium
; lambda/nm       n         k
190.75	1.03125000	2.27125000
192.23	1.04484400	2.30093800
193.73	1.06000000	2.33000000
195.25	1.07640600	2.35843800
196.80	1.09375000	2.38625000
198.38	1.11171900	2.41343700
199.98	1.13000000	2.44000000
201.60	1.14562500	2.46291700
203.25	1.16200000	2.48641700
204.93	1.17987500	2.51170800
206.64	1.20000000	2.54000000
208.38	1.22312500	2.57250000
210.14	1.24000000	2.60000000
211.94	1.25437500	2.62500000
213.77	1.27000000	2.65000000
215.63	1.29437500	2.67937500
217.52	1.32000000	2.71000000
219.44	1.34000000	2.74000000
221.40	1.36000000	2.77000000
223.40	1.38437500	2.80062500
225.43	1.41000000	2.83000000
227.50	1.43437500	2.85500000
229.60	1.46000000	2.88000000
231.75	1.48937500	2.90937500
233.93	1.52000000	2.94000000
236.16	1.54937500	2.96937500
238.43	1.58000000	3.00000000
240.75	1.61312500	3.03562500
243.11	1.65000000	3.07000000
245.52	1.69437500	3.09750000
247.97	1.74000000	3.12000000
250.48	1.78187500	3.13562500
253.03	1.82000000	3.15000000
255.64	1.85125000	3.16875000
258.30	1.88000000	3.19000000
261.02	1.90937500	3.21312500
263.80	1.94000000	3.24000000
266.63	1.97250000	3.27375000
269.53	2.01000000	3.31000000
272.49	2.05625000	3.34562500
275.52	2.11000000	3.38000000
278.62	2.17187500	3.41250000
281.78	2.24000000	3.44000000
285.02	2.31437500	3.46062500
288.34	2.39000000	3.47000000
291.73	2.46250000	3.45937500
295.20	2.53000000	3.44000000
298.76	2.58937500	3.42187500
302.40	2.64000000	3.40000000
306.14	2.68062500	3.36937500
309.96	2.71000000	3.34000000
313.89	2.72437500	3.32062500
317.91	2.73000000	3.31000000
322.04	2.73125000	3.31000000
326.28	2.73000000	3.32000000
330.63	2.72875000	3.34062500
335.10	2.73000000	3.37000000
339.69	2.73750000	3.40437500
344.40	2.75000000	3.45000000
349.25	2.76250000	3.51250000
354.24	2.79000000	3.59000000
359.38	2.84875000	3.69312500
364.66	2.93000000	3.79000000
370.11	3.04000000	3.84250000
375.71	3.15000000	3.88000000
381.49	3.22000000	3.91000000
387.45	3.29000000	3.96000000
393.60	3.37500000	4.07812500
399.95	3.51000000	4.21000000
406.51	3.75625000	4.33437500
413.28	4.05000000	4.40000000
420.29	4.35875000	4.32687500
427.54	4.65000000	4.18000000
435.04	4.87187600	3.99124900
442.80	5.05000000	3.78000000
450.86	5.19625000	3.59000000
459.20	5.30000000	3.38000000
467.87	5.35062500	3.10250100
476.87	5.36000000	2.82000000
486.22	5.33500100	2.58812500
495.94	5.28000000	2.38000000
506.06	5.20125000	2.18312500
516.60	5.10000000	2.01000000
527.60	4.97499900	1.87062500
539.07	4.84000000	1.76000000
551.05	4.71375000	1.67937500
563.57	4.58000000	1.62000000
576.68	4.42125000	1.56750000
590.41	4.26000000	1.54000000
604.81	4.11000000	1.55500000
619.93	3.98000000	1.60000000
635.82	3.88000000	1.67000000
652.55	3.81000000	1.75000000
670.19	3.79000000	1.81000000
688.81	3.78000000	1.83000000
708.49	3.76000000	1.80000000
729.32	3.70000000	1.75000000
751.43	3.57000000	1.66000000
774.91	3.36000000	1.62000000
799.90	3.09666600	1.66833300
826.57	2.84000000	1.80000000
855.07	2.65000000	2.01000000
885.61	2.49000000	2.23000000
918.41	2.35000000	2.48000000
953.73	2.25000000	2.77000000
991.88	2.19000000	3.04000000
1033.21	2.16000000	3.35000000
1078.13	2.17000000	3.59000000
1127.14	2.15000000	3.84000000
1180.81	2.12000000	4.11000000
1239.85	2.09000000	4.41000000
1305.11	2.05000000	4.74000000
1377.61	2.03000000	5.10000000
1458.65	2.01000000	5.51000000
1549.81	2.00000000	5.95000000
1653.14	2.00000000	6.46000000
1771.22	2.02000000	7.04000000
1907.46	2.11000000	7.68000000
2066.42	2.21000000	8.37000000
2254.28	2.33000000	9.12000000
2479.70	2.41000000	9.97000000
