; Refractive index spectrum for Pd by Rakic
;
; A. D. Rakić, A. B. Djurišic, J. M. Elazar, and M. L. Majewski. Optical properties of metallic films for vertical-cavity optoelectronic devices, <a href="http://dx.doi.org/10.1364/AO.37.005271"><i>Appl. Opt.</i> <b>37</b>, 5271-5283 (1998)</a>
;
; Fit of the experimental data from several sources to Brendel-Bormann (BB) model
;
; lambda/nm    n     k
206.60 	1.01127319 	2.00797991 
210.90 	1.04237222 	2.00874970 
215.28 	1.06951090 	2.00872998 
219.75 	1.09266897 	2.00851499 
224.32 	1.11191218 	2.00868425 
228.99 	1.12738770 	2.00979008 
233.75 	1.13931783 	2.01234588 
238.61 	1.14799211 	2.01681544 
243.57 	1.15375774 	2.02360349 
248.63 	1.15700842 	2.03304784 
253.80 	1.15817185 	2.04541349 
259.08 	1.15769610 	2.06088905 
264.46 	1.15603550 	2.07958601 
269.96 	1.15363650 	2.10154084 
275.57 	1.15092451 	2.12672009 
281.30 	1.14829235 	2.15502815 
287.15 	1.14609095 	2.18631711 
293.12 	1.14462288 	2.22039808 
299.21 	1.14413883 	2.25705295 
305.43 	1.14483685 	2.29604603 
311.78 	1.14686409 	2.33713461 
318.27 	1.15032061 	2.38007809 
324.88 	1.15526436 	2.42464542 
331.64 	1.16171715 	2.47062059 
338.53 	1.16967078 	2.51780649 
345.57 	1.17909308 	2.56602715 
352.75 	1.18993356 	2.61512867 
360.09 	1.20212843 	2.66497919 
367.57 	1.21560494 	2.71546803 
375.21 	1.23028507 	2.76650436 
383.01 	1.24608845 	2.81801553 
390.98 	1.26293470 	2.86994520 
399.10 	1.28074525 	2.92225144 
407.40 	1.29944461 	2.97490486 
415.87 	1.31896128 	3.02788685 
424.52 	1.33922832 	3.08118791 
433.34 	1.36018368 	3.13480614 
442.35 	1.38177027 	3.18874592 
451.55 	1.40393592 	3.24301676 
460.93 	1.42663320 	3.29763223 
470.52 	1.44981915 	3.35260915 
480.30 	1.47345492 	3.40796685 
490.28 	1.49750549 	3.46372656 
500.48 	1.52193920 	3.51991097 
510.88 	1.54672747 	3.57654382 
521.50 	1.57184435 	3.63364963 
532.34 	1.59726621 	3.69125351 
543.41 	1.62297141 	3.74938100 
554.71 	1.64894000 	3.80805801 
566.24 	1.67515346 	3.86731078 
578.01 	1.70159444 	3.92716588 
590.03 	1.72824662 	3.98765028 
602.30 	1.75509450 	4.04879137 
614.82 	1.78212328 	4.11061705 
627.60 	1.80931878 	4.17315585 
640.65 	1.83666737 	4.23643701 
653.96 	1.86415591 	4.30049056 
667.56 	1.89177179 	4.36534745 
681.44 	1.91950288 	4.43103964 
695.60 	1.94733762 	4.49760017 
710.07 	1.97526507 	4.56506325 
724.83 	2.00327496 	4.63346436 
739.90 	2.03135780 	4.70284025 
755.28 	2.05950500 	4.77322903 
770.98 	2.08770897 	4.84467016 
787.01 	2.11596324 	4.91720452 
803.37 	2.14426264 	4.99087435 
820.07 	2.17260339 	5.06572324 
837.12 	2.20098333 	5.14179615 
854.52 	2.22940200 	5.21913927 
872.29 	2.25786086 	5.29780001 
890.42 	2.28636344 	5.37782687 
908.93 	2.31491550 	5.45926934 
927.83 	2.34352523 	5.54217776 
947.12 	2.37220340 	5.62660315 
966.81 	2.40096355 	5.71259703 
986.91 	2.42982213 	5.80021120 
1007.43 	2.45879871 	5.88949748 
1028.37 	2.48791610 	5.98050747 
1049.75 	2.51720054 	6.07329219 
1071.57 	2.54668182 	6.16790176 
1093.85 	2.57639340 	6.26438499 
1116.59 	2.60637253 	6.36278894 
1139.80 	2.63666032 	6.46315843 
1163.50 	2.66730183 	6.56553551 
1187.69 	2.69834600 	6.66995883 
1212.38 	2.72984569 	6.77646301 
1237.58 	2.76185753 	6.88507789 
1263.31 	2.79444173 	6.99582774 
1289.57 	2.82766185 	7.10873038 
1316.38 	2.86158437 	7.22379629 
1343.75 	2.89627818 	7.34102758 
1371.69 	2.93181391 	7.46041696 
1400.20 	2.96826300 	7.58194661 
1429.31 	3.00569666 	7.70558710 
1459.03 	3.04418447 	7.83129624 
1489.36 	3.08379275 	7.95901801 
1520.32 	3.12458257 	8.08868155 
1551.93 	3.16660741 	8.22020028 
1584.19 	3.20991046 	8.35347133 
1617.13 	3.25452150 	8.48837513 
1650.75 	3.30045336 	8.62477561 
1685.06 	3.34769809 	8.76252077 
1720.10 	3.39622272 	8.90144408 
1755.85 	3.44596493 	9.04136663 
1792.36 	3.49682853 	9.18210028 
1829.62 	3.54867913 	9.32345189 
1867.66 	3.60134015 	9.46522872 
1906.48 	3.65458957 	9.60724507 
1946.12 	3.70815755 	9.74933006 
1986.58 	3.76172554 	9.89133650 
2027.88 	3.81492702 	10.03315051 
