;  Optical constants for Pt
; 
;   taken from:
;
;   'Handbook of Optical Constants of Solids', Ed. by Edward D. Palik,
;   Academic Press, Inc., 1985.
;   
;    Lambda (nm)            n            k
;-----------------------------------------
101.96	1.22000000	1.01000000
104.01	1.22000000	1.02000000
105.97	1.23000000	1.04000000
108.00	1.24000000	1.05000000
110.01	1.24000000	1.07000000
112.00	1.25000000	1.09000000
113.95	1.27000000	1.11000000
115.98	1.28000000	1.13000000
117.96	1.30000000	1.15000000
120.02	1.32000000	1.17000000
122.03	1.35000000	1.18000000
123.99	1.37000000	1.18000000
126.00	1.40000000	1.17000000
128.00	1.42000000	1.17000000
130.00	1.43000000	1.16000000
131.99	1.43000000	1.15000000
133.99	1.43000000	1.15000000
135.99	1.43000000	1.14000000
138.00	1.43000000	1.14000000
140.00	1.45000000	1.15000000
142.00	1.46000000	1.15000000
144.00	1.46000000	1.15000000
146.00	1.47000000	1.15000000
148.00	1.47000000	1.15000000
149.99	1.47000000	1.15000000
154.99	1.46000000	1.16000000
160.00	1.46000000	1.22000000
165.00	1.48000000	1.21000000
170.00	1.49000000	1.22000000
174.99	1.46000000	1.23000000
179.99	1.42000000	1.23000000
184.99	1.38000000	1.24000000
189.98	1.34000000	1.26000000
195.00	1.30000000	1.29000000
200.00	1.24000000	1.34000000
200.00	1.39000000	1.35000000
203.25	1.38000000	1.37000000
204.99	1.19000000	1.40000000
206.63	1.38000000	1.40000000
210.14	1.37000000	1.43000000
213.76	1.36000000	1.47000000
221.39	1.36000000	1.54000000
229.59	1.36000000	1.61000000
238.42	1.36000000	1.67000000
247.96	1.36000000	1.76000000
258.29	1.38000000	1.85000000
269.52	1.39000000	1.95000000
281.77	1.43000000	2.04000000
295.19	1.45000000	2.14000000
309.95	1.49000000	2.25000000
317.90	1.51000000	2.32000000
326.26	1.53000000	2.37000000
335.08	1.56000000	2.42000000
344.39	1.58000000	2.48000000
354.23	1.60000000	2.55000000
364.65	1.62000000	2.62000000
375.70	1.65000000	2.69000000
387.44	1.68000000	2.76000000
399.94	1.72000000	2.84000000
413.27	1.75000000	2.92000000
427.52	1.79000000	3.01000000
442.79	1.83000000	3.10000000
459.19	1.87000000	3.20000000
476.85	1.91000000	3.30000000
495.92	1.96000000	3.42000000
516.58	2.03000000	3.54000000
539.04	2.10000000	3.67000000
563.54	2.17000000	3.77000000
590.38	2.23000000	3.92000000
619.90	2.30000000	4.07000000
652.53	2.38000000	4.26000000
688.78	2.51000000	4.43000000
729.29	2.63000000	4.63000000
774.88	2.76000000	4.84000000
826.53	2.92000000	5.07000000
885.57	3.10000000	5.32000000
953.69	3.29000000	5.61000000
1033.17	3.55000000	5.92000000
1078.09	3.70000000	6.08000000
1127.09	3.86000000	6.24000000
1180.76	4.03000000	6.44000000
1239.80	4.25000000	6.62000000
1305.05	4.50000000	6.77000000
1377.56	4.77000000	6.91000000
1408.86	4.91000000	6.95000000
1458.59	5.05000000	6.98000000
1511.95	5.17000000	7.01000000
1549.75	5.31000000	7.04000000
1610.13	5.44000000	7.04000000
1653.07	5.57000000	7.02000000
1698.36	5.67000000	6.95000000
1771.14	5.71000000	6.83000000
1823.24	5.66000000	6.73000000
1907.38	5.52000000	6.66000000
1967.94	5.34000000	6.70000000
2066.33	5.13000000	6.75000000
2175.09	4.86000000	6.89000000
2254.18	4.58000000	7.14000000
2384.23	4.30000000	7.40000000
2479.60	3.91000000	7.71000000
