; Refractive index spectrum for Pt by Rakic
;
; A. D. Rakić, A. B. Djurišic, J. M. Elazar, and M. L. Majewski. Optical properties of metallic films for vertical-cavity optoelectronic devices, <a href="http://dx.doi.org/10.1364/AO.37.005271"><i>Appl. Opt.</i> <b>37</b>, 5271-5283 (1998)</a>
;
; Fit of the experimental data from several sources to Brendel-Bormann (BB) model
;
; lambda/nm    n     k
206.60 	1.77403147 	1.48934816 
210.90 	1.74089031 	1.48681627 
215.28 	1.70645167 	1.49075470 
219.75 	1.67153381 	1.50120037 
224.32 	1.63696150 	1.51806855 
228.99 	1.60354243 	1.54114378 
233.75 	1.57203802 	1.57007781 
238.61 	1.54313170 	1.60439745 
243.57 	1.51739907 	1.64352340 
248.63 	1.49528498 	1.68679885 
253.80 	1.47709079 	1.73352426 
259.08 	1.46297361 	1.78299361 
264.46 	1.45295636 	1.83452724 
269.96 	1.44694578 	1.88749816 
275.57 	1.44475500 	1.94135013 
281.30 	1.44612714 	1.99560773 
287.15 	1.45075768 	2.04987964 
293.12 	1.45831393 	2.10385692 
299.21 	1.46845111 	2.15730791 
305.43 	1.48082512 	2.21007129 
311.78 	1.49510218 	2.26204817 
318.27 	1.51096600 	2.31319410 
324.88 	1.52812291 	2.36351135 
331.64 	1.54630538 	2.41304151 
338.53 	1.56527435 	2.46185884 
345.57 	1.58482057 	2.51006397 
352.75 	1.60476522 	2.55777833 
360.09 	1.62495999 	2.60513895 
367.57 	1.64528667 	2.65229374 
375.21 	1.66565629 	2.69939724 
383.01 	1.68600802 	2.74660670 
390.98 	1.70630771 	2.79407853 
399.10 	1.72654624 	2.84196515 
407.40 	1.74673761 	2.89041209 
415.87 	1.76691681 	2.93955553 
424.52 	1.78713760 	2.98952014 
433.34 	1.80747014 	3.04041719 
442.35 	1.82799846 	3.09234316 
451.55 	1.84881796 	3.14537851 
460.93 	1.87003282 	3.19958695 
470.52 	1.89175344 	3.25501491 
480.30 	1.91409394 	3.31169139 
490.28 	1.93716971 	3.36962812 
500.48 	1.96109507 	3.42881997 
510.88 	1.98598112 	3.48924562 
521.50 	2.01193364 	3.55086846 
532.34 	2.03905124 	3.61363771 
543.41 	2.06742369 	3.67748968 
554.71 	2.09713039 	3.74234923 
566.24 	2.12823904 	3.80813131 
578.01 	2.16080454 	3.87474266 
590.03 	2.19486805 	3.94208360 
602.30 	2.23045623 	4.01004983 
614.82 	2.26758073 	4.07853449 
627.60 	2.30623780 	4.14743005 
640.65 	2.34640820 	4.21663052 
653.96 	2.38805727 	4.28603351 
667.56 	2.43113532 	4.35554247 
681.44 	2.47557820 	4.42506893 
695.60 	2.52130824 	4.49453470 
710.07 	2.56823547 	4.56387418 
724.83 	2.61625923 	4.63303650 
739.90 	2.66527010 	4.70198762 
755.28 	2.71515228 	4.77071232 
770.98 	2.76578637 	4.83921593 
787.01 	2.81705254 	4.90752583 
803.37 	2.86883422 	4.97569257 
820.07 	2.92102211 	5.04379056 
837.12 	2.97351869 	5.11191821 
854.52 	3.02624306 	5.18019748 
872.29 	3.07913615 	5.24877260 
890.42 	3.13216616 	5.31780799 
908.93 	3.18533425 	5.38748509 
927.83 	3.23868030 	5.45799813 
947.12 	3.29228858 	5.52954849 
966.81 	3.34629317 	5.60233765 
986.91 	3.40088295 	5.67655850 
1007.43 	3.45630571 	5.75238477 
1028.37 	3.51287104 	5.82995860 
1049.75 	3.57095154 	5.90937597 
1071.57 	3.63098156 	5.99067008 
1093.85 	3.69345287 	6.07379270 
1116.59 	3.75890611 	6.15859381 
1139.80 	3.82791715 	6.24480012 
1163.50 	3.90107709 	6.33199335 
1187.69 	3.97896472 	6.41958985 
1212.38 	4.06211065 	6.50682359 
1237.58 	4.15095245 	6.59273543 
1263.31 	4.24578123 	6.67617216 
1289.57 	4.34668144 	6.75579940 
1316.38 	4.45346707 	6.83013250 
1343.75 	4.56562000 	6.89758866 
1371.69 	4.68223791 	6.95656217 
1400.20 	4.80200076 	7.00552118 
1429.31 	4.92316508 	7.04312102 
1459.03 	5.04359348 	7.06832464 
1489.36 	5.16082305 	7.08051722 
1520.32 	5.27217093 	7.07960058 
1551.93 	5.37486901 	7.06605374 
1584.19 	5.46621435 	7.04095021 
1617.13 	5.54371901 	7.00592851 
1650.75 	5.60524266 	6.96311957 
1685.06 	5.64909466 	6.91504074 
1720.10 	5.67409776 	6.86447035 
1755.85 	5.67961168 	6.81431751 
1792.36 	5.66552079 	6.76750068 
1829.62 	5.63219403 	6.72684427 
1867.66 	5.58042728 	6.69499841 
1906.48 	5.51137788 	6.67438225 
1946.12 	5.42649939 	6.66714782 
1986.58 	5.32748164 	6.67515930 
2027.88 	5.21619814 	6.69998185 
