; From SOPRA S.A. http://www.sopra-sa.com/indices.htm
; Filename    Symbol               Range (nm)     Description
; RINGAS20    In0.2Ga0.8As        206     2479    Indium Gallium Arsenide (relaxed, 20% In)
; lambda/nm       n         k
243.11	1.84761300	3.49434300
244.71	1.91247000	3.55380900
246.33	1.98897500	3.64983800
247.97	2.08924000	3.71291500
249.63	2.21275600	3.77815400
251.32	2.35105500	3.82466700
253.03	2.54466200	3.87395000
254.76	2.67485700	3.87319300
256.52	2.84421000	3.87102600
258.30	3.01748500	3.83900500
260.11	3.16927100	3.77342600
261.94	3.29369200	3.68324600
263.80	3.41186800	3.60629700
265.68	3.50976000	3.51787600
267.59	3.61675000	3.40532200
269.53	3.67591200	3.30254300
271.50	3.74080800	3.19103200
273.50	3.81045200	3.09389800
275.52	3.84905000	2.98820400
277.58	3.89220200	2.88263900
279.67	3.91488900	2.78947000
281.78	3.95697100	2.66516700
283.94	3.95210400	2.56003600
286.12	3.93470600	2.45792800
288.34	3.92137000	2.36265800
290.59	3.87988500	2.30045200
292.88	3.85638400	2.21777400
295.20	3.82389500	2.16538600
297.56	3.79826500	2.11944500
299.96	3.76418200	2.06861400
302.40	3.72431000	2.03311500
304.88	3.70292500	1.99746900
307.40	3.67793500	1.96963800
309.96	3.65982600	1.94560200
312.57	3.62279600	1.92052600
315.22	3.60521400	1.90870900
317.91	3.58204600	1.88936300
320.65	3.57071100	1.88431000
323.44	3.55117000	1.87545900
326.28	3.53570400	1.86789400
329.16	3.52060300	1.86661300
332.10	3.51789900	1.86442700
335.10	3.50826100	1.86484100
338.14	3.50893500	1.87264600
341.24	3.49398500	1.87332000
344.40	3.49604300	1.87166500
347.62	3.50446200	1.88001900
350.90	3.50303200	1.88438500
354.24	3.51690900	1.89183300
357.65	3.51946600	1.90259100
361.12	3.53098300	1.91360400
364.66	3.54526400	1.92499600
368.27	3.56568900	1.93960600
371.96	3.58641800	1.95000700
375.71	3.60868700	1.96384200
379.55	3.63533600	1.98262100
383.46	3.67050600	1.99784400
387.45	3.70999500	2.01148700
391.53	3.75163500	2.03640200
395.70	3.81296600	2.04973900
399.95	3.88143800	2.07018700
404.30	3.96848100	2.06752300
408.74	4.06642100	2.06891100
413.28	4.16318500	2.02140500
417.93	4.24987800	1.96597400
422.68	4.31451800	1.90630500
427.54	4.37604000	1.84143900
432.51	4.42191600	1.79560900
437.59	4.49800900	1.75199400
442.80	4.58889400	1.69584500
448.14	4.69453500	1.59248400
453.60	4.79139200	1.44898100
459.20	4.82643700	1.27605200
464.94	4.81390900	1.10666300
470.83	4.76223200	0.96407900
476.87	4.69369900	0.85483100
483.06	4.62990600	0.76959900
489.42	4.56658400	0.69416700
495.94	4.49948600	0.63544000
502.64	4.44527100	0.58603500
509.53	4.38786700	0.54531600
516.60	4.33889600	0.50752600
523.88	4.29218300	0.47737100
531.37	4.24758400	0.44758400
539.07	4.20588700	0.42405300
546.99	4.16781100	0.40544000
555.16	4.12890100	0.38572100
563.57	4.09441400	0.36916100
572.24	4.05834000	0.35271500
581.18	4.02926000	0.33900000
590.41	4.00267200	0.32611000
599.93	3.97517800	0.31296100
609.76	3.94930500	0.30146400
619.93	3.92256000	0.29056800
630.43	3.89928200	0.28152000
641.30	3.87816400	0.27544600
652.55	3.85924700	0.26713600
664.21	3.83943500	0.25700000
676.28	3.82154300	0.24623500
688.81	3.80265200	0.24227900
701.80	3.78670500	0.23855200
715.30	3.77023300	0.23232800
729.32	3.76196500	0.22064800
743.91	3.74953800	0.21228100
759.09	3.73132100	0.20716200
774.91	3.72281600	0.20736400
791.39	3.71659500	0.20029600
808.60	3.71222800	0.18636000
826.57	3.70372200	0.17025700
845.35	3.68315100	0.14916000
865.01	3.69326400	0.20415100
885.61	3.64656700	0.18617200
907.21	3.90946400	0.26981100
929.89	3.87717400	0.50634100
953.73	3.83759400	1.11379200
