; From SOPRA S.A. http://www.sopra-sa.com/indices.htm
; Filename    Symbol               Range (nm)     Description
; RINGAS10    In0.1Ga0.9As        206     2479    Indium Gallium Arsenide (relaxed, 10% In)
; lambda/nm       n         k
240.00	1.78662500	3.48634100
245.00	1.93758500	3.80998800
250.00	2.34336600	3.99907100
255.00	2.87275100	4.00432800
260.00	3.31659800	3.79354900
265.00	3.58436000	3.51772700
270.00	3.76610100	3.23725100
275.00	3.89200100	3.01314300
280.00	3.98181700	2.73672500
285.00	3.96849300	2.48995100
290.00	3.91902800	2.29406000
295.00	3.83817200	2.15872400
300.00	3.75482700	2.06458300
305.00	3.69544000	2.00942100
310.00	3.63401800	1.96954000
315.00	3.58741400	1.93637600
320.00	3.56099300	1.92279300
325.00	3.53562400	1.91685100
330.00	3.51785400	1.91557600
335.00	3.51279700	1.91729700
340.00	3.50411700	1.93109400
345.00	3.50731700	1.94630700
350.00	3.51878700	1.96186300
355.00	3.53380500	1.97712100
360.00	3.55690600	1.99685800
365.00	3.58941700	2.01922600
370.00	3.62127500	2.04477300
375.00	3.66424600	2.07031400
380.00	3.72128900	2.09503400
385.00	3.77984600	2.12894800
390.00	3.86200500	2.16104600
395.00	3.97030400	2.18705100
400.00	4.11171900	2.18683400
405.00	4.24320000	2.13039500
410.00	4.35138800	2.04090400
415.00	4.41442500	1.95944200
420.00	4.47364100	1.90016000
425.00	4.53407000	1.86114800
430.00	4.63885400	1.82582000
435.00	4.78369400	1.74287500
440.00	4.92090000	1.56538500
445.00	4.96372400	1.35762700
450.00	4.94455100	1.16621500
455.00	4.89470100	1.02190700
460.00	4.82496500	0.90748700
465.00	4.76207000	0.81746700
470.00	4.69679000	0.74354700
475.00	4.63921400	0.69021100
480.00	4.57872200	0.63892200
485.00	4.52684300	0.59907600
490.00	4.48094900	0.56268700
495.00	4.43628300	0.53447500
500.00	4.39613800	0.50687200
505.00	4.35946200	0.48542000
510.00	4.32270100	0.46266900
515.00	4.29122100	0.44333100
520.00	4.26170300	0.42610200
525.00	4.23309000	0.41192200
530.00	4.20679100	0.39819600
535.00	4.18433800	0.38556700
540.00	4.15721800	0.37457500
545.00	4.13487000	0.36387000
550.00	4.11418200	0.35471300
555.00	4.09293500	0.34652200
560.00	4.07321700	0.33562700
565.00	4.05854000	0.32879600
570.00	4.03892600	0.32006800
575.00	4.02239600	0.31281900
580.00	4.00727000	0.30568400
585.00	3.99361400	0.30141400
590.00	3.97498300	0.29544800
595.00	3.96254600	0.28978400
600.00	3.94982200	0.28448600
605.00	3.93874900	0.27934300
610.00	3.92460200	0.27464100
615.00	3.91411300	0.27068400
620.00	3.90364100	0.26483600
625.00	3.89340500	0.26099400
630.00	3.88263600	0.25711300
635.00	3.87550900	0.25316800
640.00	3.86623000	0.25003800
645.00	3.85587700	0.24645600
650.00	3.84707100	0.24162200
655.00	3.83968800	0.23966800
660.00	3.83154900	0.23441200
665.00	3.82484900	0.23006100
670.00	3.81718600	0.22959600
675.00	3.81194000	0.22665200
680.00	3.80378800	0.22205400
685.00	3.79837000	0.21875100
690.00	3.79242300	0.21685600
695.00	3.78594400	0.21630000
700.00	3.78014000	0.21096800
705.00	3.77410100	0.20828100
710.00	3.77213100	0.20522300
715.00	3.76275000	0.20514200
720.00	3.76117900	0.20359300
725.00	3.75748800	0.20042000
730.00	3.75636100	0.20101200
735.00	3.75268400	0.19372000
740.00	3.74813700	0.18913400
745.00	3.74731400	0.18481300
750.00	3.73815000	0.17879100
755.00	3.73454000	0.17673200
760.00	3.73200700	0.17255100
765.00	3.72440700	0.16843800
770.00	3.72057400	0.16677100
775.00	3.71876600	0.16417100
780.00	3.71357400	0.16182000
785.00	3.70756800	0.16393800
790.00	3.70544600	0.15795800
795.00	3.70252400	0.15485100
800.00	3.69784600	0.14810600
805.00	3.69373900	0.14517900
810.00	3.69100800	0.14495000
815.00	3.68453800	0.14231100
820.00	3.67591300	0.13634900
825.00	3.66938400	0.13389000
830.00	3.66414000	0.13355600
835.00	3.66083100	0.13450200
840.00	3.66544400	0.14455100
