; From SOPRA S.A. http://www.sopra-sa.com/indices.htm
; Filename    Symbol               Range (nm)     Description
; RESI1-75    ReSi1.75            103    12398    Rhenium Silicide
; lambda/nm       n         k
103.32	0.83200000	1.20100000
104.19	0.83200000	1.20100000
105.07	0.83200000	1.20100000
105.97	0.83600000	1.20800000
106.88	0.84300000	1.22100000
107.81	0.85100000	1.23400000
108.76	0.85800000	1.24700000
109.72	0.86800000	1.26700000
110.70	0.87200000	1.27300000
111.70	0.87900000	1.28500000
112.71	0.88600000	1.29800000
113.75	0.89300000	1.31000000
114.80	0.90300000	1.32900000
115.87	0.90300000	1.34000000
116.97	0.90300000	1.36200000
118.08	0.90300000	1.38400000
119.22	0.91700000	1.40700000
120.37	0.93700000	1.44100000
121.55	0.94300000	1.45200000
122.76	0.95600000	1.47400000
123.99	0.96900000	1.49600000
125.24	0.97600000	1.52700000
126.52	0.98600000	1.57200000
127.82	0.99200000	1.58200000
129.15	1.00400000	1.60300000
130.51	1.01700000	1.62300000
131.90	1.03200000	1.65600000
133.32	1.05500000	1.70700000
134.77	1.05900000	1.71800000
136.25	1.06800000	1.74100000
137.76	1.07700000	1.76400000
139.31	1.10200000	1.79600000
140.89	1.13900000	1.84300000
142.51	1.15000000	1.86000000
144.17	1.17100000	1.89500000
145.86	1.19200000	1.92900000
147.60	1.20500000	1.95800000
149.38	1.22500000	2.00000000
151.20	1.23300000	2.01900000
153.07	1.24800000	2.05800000
154.98	1.26400000	2.09700000
156.94	1.28200000	2.09800000
158.96	1.30900000	2.10100000
161.02	1.31500000	2.10700000
163.14	1.32600000	2.11900000
165.31	1.33800000	2.13100000
167.55	1.39800000	2.13800000
169.84	1.48900000	2.14900000
172.20	1.52100000	2.16700000
174.63	1.58600000	2.20400000
177.12	1.65100000	2.24200000
179.69	1.66900000	2.26400000
182.33	1.69700000	2.29800000
185.05	1.72300000	2.30900000
187.86	1.77500000	2.33100000
190.75	1.82700000	2.35300000
193.73	1.87100000	2.36300000
196.80	1.93600000	2.37600000
199.98	1.95600000	2.38700000
203.25	1.99700000	2.40800000
206.64	2.03800000	2.42900000
210.14	2.07500000	2.43300000
213.77	2.13200000	2.43900000
217.52	2.16300000	2.44100000
221.40	2.22300000	2.44700000
225.43	2.28300000	2.45200000
229.60	2.32100000	2.44700000
233.93	2.37700000	2.44000000
238.43	2.39500000	2.44700000
243.11	2.43000000	2.46100000
247.97	2.46500000	2.47500000
253.03	2.50300000	2.49300000
258.30	2.55900000	2.52000000
263.80	2.58300000	2.52800000
269.53	2.62900000	2.54400000
275.52	2.67500000	2.56100000
281.78	2.73800000	2.58100000
288.34	2.83300000	2.61200000
295.20	2.87400000	2.61300000
302.40	2.95700000	2.61400000
309.96	3.04000000	2.61500000
317.91	3.14500000	2.63500000
326.28	3.30200000	2.66500000
335.10	3.35300000	2.65200000
344.40	3.45600000	2.62600000
354.24	3.55800000	2.60000000
364.66	3.65500000	2.54400000
375.71	3.80100000	2.46000000
387.45	3.84000000	2.43100000
399.95	3.91800000	2.37300000
413.28	3.99500000	2.31500000
427.54	4.07700000	2.23200000
442.80	4.20000000	2.10700000
459.20	4.22600000	2.07400000
476.87	4.27900000	2.00600000
495.94	4.33100000	1.93900000
516.60	4.37500000	1.84800000
539.07	4.44200000	1.71100000
563.57	4.46300000	1.67200000
590.41	4.50600000	1.59400000
619.93	4.55000000	1.51700000
652.55	4.58500000	1.44900000
688.81	4.63800000	1.34700000
729.32	4.64500000	1.30900000
774.91	4.65900000	1.23200000
826.57	4.67300000	1.15600000
885.61	4.69000000	1.10100000
953.73	4.71600000	1.01800000
1033.21	4.73200000	0.99800000
1127.14	4.76600000	0.95700000
1239.85	4.80800000	0.90100000
1377.61	4.83500000	0.85300000
1549.81	4.88100000	0.79100000
1771.22	4.96500000	0.72800000
2066.42	5.09000000	0.63700000
2479.70	5.19200000	0.44500000
