; From SOPRA S.A. http://www.sopra-sa.com/indices.htm
; Filename    Symbol               Range (nm)     Description
; SINGAS0     GaAs                240      840    Indium Gallium Arsenide (strained, 0% In)
; lambda/nm       n         k
240.00	1.64345300	3.58039400
245.00	1.92655800	3.90862100
250.00	2.58268900	4.10087500
255.00	3.05344000	3.97860000
260.00	3.45163300	3.65926100
265.00	3.63063200	3.40215700
270.00	3.76900000	3.16900000
275.00	3.89968700	2.95135800
280.00	3.99486700	2.68332100
285.00	3.99143700	2.40118700
290.00	3.90946100	2.20034700
295.00	3.81000000	2.06900000
300.00	3.72943800	1.99544400
305.00	3.65365200	1.94492900
310.00	3.60100000	1.92000000
315.00	3.55846300	1.90691400
320.00	3.52649600	1.90346900
325.00	3.50433100	1.90746500
330.00	3.49170600	1.91587000
335.00	3.48500000	1.93100000
340.00	3.48675000	1.94637500
345.00	3.49747300	1.96939600
350.00	3.51331900	1.99207000
355.00	3.53613200	2.01868400
360.00	3.56419700	2.04745200
365.00	3.59600000	2.07600000
370.00	3.64225000	2.11506200
375.00	3.69535400	2.15200900
380.00	3.78257700	2.22422500
385.00	3.88891700	2.27914400
390.00	4.02762900	2.27720000
395.00	4.19989600	2.22359800
400.00	4.37300000	2.14600000
405.00	4.42369100	2.08027200
410.00	4.46052000	1.99949200
415.00	4.57935500	1.92399900
420.00	4.79481300	1.86775000
425.00	4.97672600	1.79726300
430.00	5.06872200	1.62887600
435.00	5.05600000	1.36024900
440.00	5.00320100	1.11552700
445.00	4.92967900	0.93220600
450.00	4.85007700	0.82434100
455.00	4.76207600	0.74544000
460.00	4.68013600	0.68429800
465.00	4.61879100	0.63209400
470.00	4.56436300	0.58880500
475.00	4.51198100	0.55224000
480.00	4.46255300	0.51942100
485.00	4.41654900	0.48995100
490.00	4.37622600	0.46565600
495.00	4.33994400	0.44489500
500.00	4.30492400	0.42500100
505.00	4.27191000	0.40652800
510.00	4.24237800	0.39049500
515.00	4.21535000	0.37630600
520.00	4.18945000	0.36318400
525.00	4.16442800	0.35088000
530.00	4.14039900	0.33930700
535.00	4.11739800	0.32833800
540.00	4.09588100	0.31796300
545.00	4.07622400	0.30811900
550.00	4.05799200	0.29884800
555.00	4.04107700	0.29024400
560.00	4.02518100	0.28216800
565.00	4.00995400	0.27447100
570.00	3.99502400	0.26701100
575.00	3.98058200	0.25984800
580.00	3.96648200	0.25288600
585.00	3.95286700	0.24621400
590.00	3.94000000	0.24000000
595.00	3.92855300	0.23471800
600.00	3.91785900	0.22986400
605.00	3.90768700	0.22525000
610.00	3.89743600	0.22050600
615.00	3.88752400	0.21577200
620.00	3.87800000	0.21100000
625.00	3.86900600	0.20599000
630.00	3.86043600	0.20094800
635.00	3.85227300	0.19593300
640.00	3.84450800	0.19104000
645.00	3.83711400	0.18628000
650.00	3.83006900	0.18167500
655.00	3.82334500	0.17731400
660.00	3.81692000	0.17322500
665.00	3.81079000	0.16928100
670.00	3.80493800	0.16543800
675.00	3.79952800	0.16180800
680.00	3.79429500	0.15812700
685.00	3.78913800	0.15427900
690.00	3.78388100	0.15002000
695.00	3.77823900	0.14493000
700.00	3.77256500	0.13962900
705.00	3.76691500	0.13425900
710.00	3.76143100	0.12905400
715.00	3.75618600	0.12417200
720.00	3.75104500	0.11953800
725.00	3.74599200	0.11520800
730.00	3.74098500	0.11129900
735.00	3.73594900	0.10803000
740.00	3.73098900	0.10511800
745.00	3.72612400	0.10251900
750.00	3.72137300	0.10018800
755.00	3.71677300	0.09790800
760.00	3.71232500	0.09580500
765.00	3.70803800	0.09394000
770.00	3.70392600	0.09233300
775.00	3.70000000	0.09100000
780.00	3.69647500	0.09044400
785.00	3.69311500	0.09008100
790.00	3.68987900	0.08980500
795.00	3.68672900	0.08950700
800.00	3.68362500	0.08908200
805.00	3.68049600	0.08855600
810.00	3.67734200	0.08766000
815.00	3.67413000	0.08625800
820.00	3.67083000	0.08421100
825.00	3.66740900	0.08138200
830.00	3.66369100	0.07662600
835.00	3.65971800	0.07032200
840.00	3.65560400	0.06333500
