; From SOPRA S.A. http://www.sopra-sa.com/indices.htm
; Filename    Symbol               Range (nm)     Description
; SINGAS10    In0.1Ga0.9As        240      840    Indium Gallium Arsenide (strained, 10% In)
; lambda/nm       n         k
240.00	1.69563200	3.62697300
245.00	1.99595400	3.83231100
250.00	2.48919200	4.04727200
255.00	3.01808600	3.98986800
260.00	3.38970600	3.73613300
265.00	3.69210000	3.44161400
270.00	3.82847900	3.13312000
275.00	3.95682900	2.89469900
280.00	3.98948700	2.61969700
285.00	3.99427300	2.37910700
290.00	3.90887600	2.19780300
295.00	3.83706100	2.07782600
300.00	3.75746800	1.99720500
305.00	3.69131800	1.94116300
310.00	3.63544900	1.90348300
315.00	3.58940900	1.88228200
320.00	3.55771400	1.87177700
325.00	3.53027200	1.86955200
330.00	3.52014600	1.87376300
335.00	3.50493100	1.87883600
340.00	3.50794100	1.89149900
345.00	3.50936200	1.90442200
350.00	3.51783300	1.92210700
355.00	3.53201000	1.94349900
360.00	3.56045600	1.96586200
365.00	3.58853700	1.98529300
370.00	3.62290500	2.01220900
375.00	3.66364400	2.03605000
380.00	3.72572700	2.06165200
385.00	3.78761100	2.09181600
390.00	3.88221100	2.11872700
395.00	3.98380700	2.12352000
400.00	4.11611700	2.09761200
405.00	4.20899100	2.03158900
410.00	4.27294900	1.96426600
415.00	4.32520500	1.92332100
420.00	4.37500200	1.89689500
425.00	4.45284500	1.90422100
430.00	4.61691900	1.90806200
435.00	4.82732000	1.78475800
440.00	4.95226600	1.55241500
445.00	4.97129600	1.31776200
450.00	4.93645100	1.12632800
455.00	4.86644100	0.98182600
460.00	4.79233800	0.87764100
465.00	4.72435600	0.79579000
470.00	4.65898600	0.72593300
475.00	4.59509800	0.67041700
480.00	4.54125200	0.62213500
485.00	4.49273300	0.58322400
490.00	4.44355000	0.55056600
495.00	4.39944800	0.52075600
500.00	4.35930000	0.49383500
505.00	4.32392100	0.47067900
510.00	4.28931600	0.45157500
515.00	4.25633300	0.43091000
520.00	4.22542100	0.41491000
525.00	4.19676200	0.40001400
530.00	4.16964400	0.38544300
535.00	4.14413600	0.37266000
540.00	4.11996900	0.36221200
545.00	4.09524000	0.34836500
550.00	4.07628000	0.34015200
555.00	4.05467800	0.33091700
560.00	4.03354600	0.32033300
565.00	4.01492400	0.31320500
570.00	3.99410500	0.30216000
575.00	3.98114700	0.29559500
580.00	3.96247800	0.28981800
585.00	3.94809900	0.28198800
590.00	3.93701900	0.27606900
595.00	3.92089600	0.26820700
600.00	3.90816500	0.26313600
605.00	3.90076200	0.26068000
610.00	3.88365300	0.25135800
615.00	3.87393500	0.24894700
620.00	3.86459200	0.24352200
625.00	3.85265200	0.23707400
630.00	3.84129900	0.23328000
635.00	3.83154600	0.22916100
640.00	3.81706200	0.22429100
645.00	3.80945500	0.21942100
650.00	3.80297000	0.21734000
655.00	3.79114300	0.21306500
660.00	3.78698800	0.20964200
665.00	3.78254700	0.20724800
670.00	3.77524500	0.20510100
675.00	3.76904400	0.20138800
680.00	3.75637700	0.19490400
685.00	3.74778900	0.19040700
690.00	3.75038700	0.19391900
695.00	3.74678300	0.19038500
700.00	3.73835600	0.18581300
705.00	3.72413000	0.17999900
710.00	3.72462000	0.17920800
715.00	3.72308900	0.17485900
720.00	3.71215100	0.17018200
725.00	3.71215200	0.16674100
730.00	3.70520100	0.16410600
735.00	3.70420200	0.15439200
740.00	3.69987200	0.14897000
745.00	3.69572000	0.14942100
750.00	3.69172100	0.14694800
755.00	3.68300600	0.14487900
760.00	3.67710000	0.14425900
765.00	3.67482400	0.13932100
770.00	3.67177200	0.14297700
775.00	3.66689500	0.14944500
780.00	3.66550600	0.14709700
785.00	3.66079900	0.14838100
790.00	3.65980200	0.14184600
795.00	3.65300100	0.14884000
800.00	3.65300500	0.14024600
805.00	3.65059600	0.14467100
810.00	3.64760400	0.14393400
815.00	3.64282800	0.14669000
820.00	3.63891400	0.13619700
825.00	3.64005200	0.11993900
830.00	3.63639100	0.13636900
835.00	3.63625000	0.12674500
840.00	3.63412200	0.16310200
