; From SOPRA S.A. http://www.sopra-sa.com/indices.htm
; Filename    Symbol               Range (nm)     Description
; SINGAS20    In0.2Ga0.8As        240      840    Indium Gallium Arsenide (strained, 20% In)
; lambda/nm       n         k
240.00	2.35546400	4.11604500
245.00	1.99388500	3.64445700
250.00	2.34743800	3.84147800
255.00	2.82181300	3.84694100
260.00	3.27999900	3.68200700
265.00	3.55680200	3.43354700
270.00	3.73709100	3.17104500
275.00	3.86468700	2.86280300
280.00	3.90705700	2.63797800
285.00	3.89447200	2.38051500
290.00	3.82386700	2.21370700
295.00	3.75307500	2.07348200
300.00	3.68907900	1.99667600
305.00	3.62721300	1.92866800
310.00	3.57707500	1.88975100
315.00	3.52884600	1.86710600
320.00	3.50179100	1.84676400
325.00	3.47221000	1.83333300
330.00	3.45714000	1.83242100
335.00	3.44375600	1.83314200
340.00	3.43789400	1.83965900
345.00	3.43357500	1.85186800
350.00	3.44010200	1.86400700
355.00	3.45367200	1.88251700
360.00	3.46098800	1.89867200
365.00	3.48438000	1.91689600
370.00	3.51487400	1.93720500
375.00	3.54949200	1.95305800
380.00	3.58819200	1.97830400
385.00	3.64880100	2.01467400
390.00	3.69573000	2.03235000
395.00	3.77284300	2.04959500
400.00	3.88226700	2.04722200
405.00	3.98356000	2.00972100
410.00	4.03882000	1.95923000
415.00	4.08592100	1.91657700
420.00	4.10534300	1.90412000
425.00	4.14167300	1.93512800
430.00	4.24863100	1.98559200
435.00	4.41310300	1.96973500
440.00	4.58698300	1.88212600
445.00	4.75105300	1.72571900
450.00	4.84552600	1.52785600
455.00	4.86452000	1.34255600
460.00	4.83585800	1.16100300
465.00	4.78313600	1.03715200
470.00	4.72268500	0.93007200
475.00	4.66056500	0.84225500
480.00	4.59769400	0.76975300
485.00	4.53575600	0.70850200
490.00	4.48061100	0.65780600
495.00	4.43846800	0.61934300
500.00	4.39667000	0.58617700
505.00	4.35699400	0.55730300
510.00	4.32046700	0.53185500
515.00	4.28267200	0.50730800
520.00	4.24629300	0.48524900
525.00	4.21082000	0.46498600
530.00	4.17554500	0.44544400
535.00	4.15037900	0.43142300
540.00	4.12896200	0.41914100
545.00	4.10373000	0.40437500
550.00	4.07993600	0.39196100
555.00	4.05798100	0.38185200
560.00	4.03711700	0.37189000
565.00	4.01536000	0.36157500
570.00	3.99153600	0.35040800
575.00	3.97155100	0.33997500
580.00	3.95525000	0.33106800
585.00	3.93865000	0.32521900
590.00	3.92235800	0.32031700
595.00	3.90767800	0.31247200
600.00	3.89354100	0.30448300
605.00	3.87842300	0.29882900
610.00	3.86440900	0.29377700
615.00	3.85440600	0.28834900
620.00	3.84442700	0.28275400
625.00	3.83036400	0.27663500
630.00	3.81548200	0.27071700
635.00	3.80150200	0.26564900
640.00	3.78907600	0.26138900
645.00	3.78059600	0.25863400
650.00	3.77422700	0.25645200
655.00	3.76762100	0.25349000
660.00	3.75991500	0.24938300
665.00	3.75243200	0.24549600
670.00	3.74570900	0.24262100
675.00	3.73897900	0.24003200
680.00	3.73160500	0.23738300
685.00	3.72371300	0.23459800
690.00	3.71517900	0.23153900
695.00	3.70564500	0.22799800
700.00	3.69686900	0.22429800
705.00	3.69127800	0.22063700
710.00	3.68803400	0.21705100
715.00	3.68484800	0.21350300
720.00	3.67811300	0.21025200
725.00	3.67085100	0.20685100
730.00	3.66427000	0.20292400
735.00	3.65998500	0.19790800
740.00	3.65628200	0.19275600
745.00	3.65259900	0.18792300
750.00	3.64822600	0.18396200
755.00	3.64372500	0.18059600
760.00	3.63903900	0.17807400
765.00	3.63398900	0.17688100
770.00	3.62928400	0.17580400
775.00	3.62527400	0.17432000
780.00	3.62354900	0.17010400
785.00	3.62241200	0.16560100
790.00	3.62140700	0.16145500
795.00	3.61874700	0.16008100
800.00	3.61556100	0.16001300
805.00	3.61261900	0.16025600
810.00	3.61091000	0.15976200
815.00	3.61216700	0.15679700
820.00	3.61342300	0.15392900
825.00	3.61382400	0.15179300
830.00	3.61244200	0.15190200
835.00	3.60848000	0.15418800
840.00	3.60119200	0.15799400
