; From SOPRA S.A. http://www.sopra-sa.com/indices.htm
; Filename    Symbol               Range (nm)     Description
; SINGAS24    In0.24Ga0.76As      240      840    Indium Gallium Arsenide (strained, 24% In)
; lambda/nm       n         k
240.00	1.81220000	3.45710000
245.00	1.98300000	3.58810000
250.00	2.33630000	3.79240000
255.00	2.77670000	3.79560000
260.00	3.20080000	3.65170000
265.00	3.49980000	3.40610000
270.00	3.68940000	3.11870000
275.00	3.81000000	2.86490000
280.00	3.86970000	2.62840000
285.00	3.85020000	2.38690000
290.00	3.79710000	2.20910000
295.00	3.72260000	2.08210000
300.00	3.65560000	1.99850000
305.00	3.60340000	1.93390000
310.00	3.54510000	1.88650000
315.00	3.50710000	1.85240000
320.00	3.46840000	1.83910000
325.00	3.44200000	1.82610000
330.00	3.42660000	1.82300000
335.00	3.41170000	1.82100000
340.00	3.40570000	1.82370000
345.00	3.40840000	1.84010000
350.00	3.40880000	1.84640000
355.00	3.41350000	1.86640000
360.00	3.43150000	1.88660000
365.00	3.45510000	1.90400000
370.00	3.48010000	1.91950000
375.00	3.51590000	1.94170000
380.00	3.55660000	1.96170000
385.00	3.59560000	1.97830000
390.00	3.65940000	1.99620000
395.00	3.72810000	2.01150000
400.00	3.82340000	2.00650000
405.00	3.90200000	1.97420000
410.00	3.95630000	1.92800000
415.00	3.99530000	1.90850000
420.00	4.01360000	1.88380000
425.00	4.04180000	1.90660000
430.00	4.13860000	1.94130000
435.00	4.27030000	1.93930000
440.00	4.41110000	1.90000000
445.00	4.55650000	1.82720000
450.00	4.70350000	1.68590000
455.00	4.79230000	1.50950000
460.00	4.81260000	1.33450000
465.00	4.79150000	1.16500000
470.00	4.74470000	1.02860000
475.00	4.68660000	0.92410000
480.00	4.62860000	0.83640000
485.00	4.57000000	0.76250000
490.00	4.51670000	0.70950000
495.00	4.46860000	0.66170000
500.00	4.41650000	0.62080000
505.00	4.37270000	0.58650000
510.00	4.33590000	0.55590000
515.00	4.29880000	0.52980000
520.00	4.26160000	0.50280000
525.00	4.22650000	0.48190000
530.00	4.19600000	0.46560000
535.00	4.16730000	0.44810000
540.00	4.14300000	0.43550000
545.00	4.11400000	0.41720000
550.00	4.08960000	0.40700000
555.00	4.06730000	0.39450000
560.00	4.04440000	0.38150000
565.00	4.02360000	0.36930000
570.00	3.99840000	0.35770000
575.00	3.98160000	0.34930000
580.00	3.96140000	0.34070000
585.00	3.94430000	0.33460000
590.00	3.92940000	0.33020000
595.00	3.91420000	0.31590000
600.00	3.89830000	0.30880000
605.00	3.88900000	0.30670000
610.00	3.87090000	0.29950000
615.00	3.86340000	0.29480000
620.00	3.85140000	0.28940000
625.00	3.83930000	0.28210000
630.00	3.82140000	0.27710000
635.00	3.80930000	0.27230000
640.00	3.79310000	0.26630000
645.00	3.78440000	0.26210000
650.00	3.77700000	0.26120000
655.00	3.76410000	0.25370000
660.00	3.75830000	0.25140000
665.00	3.75930000	0.24910000
670.00	3.75020000	0.24780000
675.00	3.74120000	0.24390000
680.00	3.72740000	0.23670000
685.00	3.71490000	0.23470000
690.00	3.72190000	0.23740000
695.00	3.71850000	0.23330000
700.00	3.70650000	0.22910000
705.00	3.68440000	0.22520000
710.00	3.68420000	0.22960000
715.00	3.68750000	0.22250000
720.00	3.67450000	0.21050000
725.00	3.66790000	0.21130000
730.00	3.66690000	0.19970000
735.00	3.64800000	0.19260000
740.00	3.65680000	0.20100000
745.00	3.64930000	0.19390000
750.00	3.64810000	0.19380000
755.00	3.64220000	0.18530000
760.00	3.63920000	0.18420000
765.00	3.63550000	0.17680000
770.00	3.63400000	0.17430000
775.00	3.62720000	0.17610000
780.00	3.62180000	0.17110000
785.00	3.62160000	0.16770000
790.00	3.62440000	0.17270000
795.00	3.60830000	0.16730000
800.00	3.61420000	0.17160000
805.00	3.61130000	0.15870000
810.00	3.62250000	0.15780000
815.00	3.60470000	0.16970000
820.00	3.60910000	0.16650000
825.00	3.61300000	0.15600000
830.00	3.60960000	0.15690000
835.00	3.61030000	0.15690000
840.00	3.59910000	0.16890000
