; Refractive index spectrum of UNEXPOSED Dow/Shipley S1800 positive photoresist
; Measured with VASE, Q. Wang, NIST, April 2015
;
; lambda/nm    n        k
229.10 	1.991160 	0.388430 
230.69 	1.995250 	0.343800 
232.28 	1.986730 	0.321760 
233.87 	1.996290 	0.303720 
235.45 	2.000180 	0.271740 
237.04 	1.995670 	0.245590 
238.63 	1.993930 	0.219250 
240.22 	1.986700 	0.187410 
241.81 	1.967470 	0.156410 
243.40 	1.939590 	0.138790 
244.99 	1.919500 	0.132820 
246.58 	1.905500 	0.124550 
248.17 	1.889710 	0.115970 
249.75 	1.873810 	0.110190 
251.34 	1.858840 	0.106280 
252.93 	1.844640 	0.103980 
254.52 	1.831390 	0.103260 
256.11 	1.819320 	0.103910 
257.70 	1.808590 	0.105620 
259.29 	1.799170 	0.108060 
260.88 	1.790930 	0.111060 
262.47 	1.783870 	0.114520 
264.06 	1.777950 	0.118240 
265.65 	1.773040 	0.122140 
267.24 	1.769090 	0.126230 
268.83 	1.766160 	0.130460 
270.42 	1.764270 	0.134730 
272.01 	1.763420 	0.138970 
273.60 	1.763660 	0.143110 
275.19 	1.765090 	0.147030 
276.78 	1.767890 	0.150550 
278.37 	1.772110 	0.153130 
279.96 	1.777360 	0.154290 
281.55 	1.783160 	0.153920 
283.14 	1.789060 	0.152080 
284.73 	1.794860 	0.149150 
286.32 	1.801010 	0.145320 
287.91 	1.807780 	0.139660 
289.50 	1.814170 	0.131250 
291.09 	1.818770 	0.120330 
292.68 	1.820590 	0.107600 
294.28 	1.818820 	0.094430 
295.87 	1.813820 	0.082530 
297.46 	1.806790 	0.072780 
299.05 	1.798690 	0.065310 
300.64 	1.790460 	0.060030 
302.23 	1.782670 	0.056410 
303.82 	1.775510 	0.053910 
305.41 	1.768970 	0.052220 
307.00 	1.763030 	0.051090 
308.59 	1.757630 	0.050360 
310.18 	1.752690 	0.049910 
311.77 	1.748130 	0.049650 
313.37 	1.743880 	0.049580 
314.96 	1.739920 	0.049690 
316.55 	1.736250 	0.049950 
318.14 	1.732870 	0.050330 
319.73 	1.729750 	0.050800 
321.32 	1.726840 	0.051350 
322.91 	1.724150 	0.052010 
324.50 	1.721710 	0.052750 
326.10 	1.719520 	0.053550 
327.69 	1.717560 	0.054380 
329.28 	1.715810 	0.055230 
330.87 	1.714300 	0.056130 
332.46 	1.713080 	0.057050 
334.05 	1.712200 	0.057900 
335.64 	1.711600 	0.058540 
337.24 	1.711140 	0.058930 
338.83 	1.710710 	0.059130 
340.42 	1.710290 	0.059230 
342.01 	1.709940 	0.059280 
343.60 	1.709700 	0.059230 
345.19 	1.709540 	0.059060 
346.79 	1.709420 	0.058730 
348.38 	1.709310 	0.058280 
349.97 	1.709200 	0.057710 
351.56 	1.709090 	0.057040 
353.15 	1.708980 	0.056250 
354.75 	1.708840 	0.055340 
356.34 	1.708660 	0.054300 
357.93 	1.708380 	0.053160 
359.52 	1.708000 	0.051920 
361.11 	1.707510 	0.050630 
362.71 	1.706910 	0.049290 
364.30 	1.706180 	0.047920 
365.89 	1.705320 	0.046540 
367.48 	1.704320 	0.045170 
369.07 	1.703170 	0.043840 
370.67 	1.701860 	0.042580 
372.26 	1.700420 	0.041420 
373.85 	1.698850 	0.040410 
375.44 	1.697190 	0.039590 
377.03 	1.695490 	0.038990 
378.63 	1.693830 	0.038610 
380.22 	1.692280 	0.038390 
381.81 	1.690840 	0.038280 
383.40 	1.689510 	0.038230 
384.99 	1.688230 	0.038210 
386.59 	1.687010 	0.038240 
388.18 	1.685820 	0.038330 
389.77 	1.684660 	0.038490 
391.36 	1.683520 	0.038730 
392.96 	1.682430 	0.039100 
394.55 	1.681420 	0.039610 
396.14 	1.680550 	0.040280 
397.73 	1.679910 	0.041060 
399.32 	1.679510 	0.041890 
400.92 	1.679350 	0.042690 
402.51 	1.679450 	0.043420 
404.10 	1.679760 	0.044010 
405.69 	1.680250 	0.044400 
407.29 	1.680870 	0.044550 
408.88 	1.681500 	0.044420 
410.47 	1.682030 	0.044050 
412.06 	1.682400 	0.043540 
413.65 	1.682610 	0.042990 
415.25 	1.682690 	0.042470 
416.84 	1.682700 	0.042030 
418.43 	1.682700 	0.041670 
420.02 	1.682730 	0.041390 
421.62 	1.682830 	0.041190 
423.21 	1.683060 	0.041060 
424.80 	1.683490 	0.040920 
426.39 	1.684120 	0.040680 
427.99 	1.684920 	0.040280 
429.58 	1.685840 	0.039620 
431.17 	1.686790 	0.038690 
432.76 	1.687690 	0.037480 
434.35 	1.688480 	0.036030 
435.95 	1.689120 	0.034350 
437.54 	1.689550 	0.032460 
439.13 	1.689700 	0.030430 
440.72 	1.689560 	0.028320 
442.32 	1.689100 	0.026220 
443.91 	1.688370 	0.024220 
445.50 	1.687400 	0.022370 
447.09 	1.686280 	0.020710 
448.69 	1.685060 	0.019220 
450.28 	1.683770 	0.017900 
451.87 	1.682440 	0.016740 
453.46 	1.681090 	0.015720 
455.05 	1.679740 	0.014850 
456.65 	1.678420 	0.014090 
458.24 	1.677120 	0.013440 
459.83 	1.675870 	0.012890 
461.42 	1.674660 	0.012420 
463.01 	1.673500 	0.012010 
464.61 	1.672400 	0.011670 
466.20 	1.671350 	0.011360 
467.79 	1.670360 	0.011080 
469.38 	1.669410 	0.010830 
470.98 	1.668500 	0.010580 
472.57 	1.667620 	0.010330 
474.16 	1.666760 	0.010100 
475.75 	1.665910 	0.009880 
477.34 	1.665080 	0.009690 
478.93 	1.664260 	0.009520 
480.53 	1.663480 	0.009380 
482.12 	1.662740 	0.009260 
483.71 	1.662050 	0.009140 
485.30 	1.661400 	0.009020 
486.89 	1.660790 	0.008880 
488.49 	1.660200 	0.008700 
490.08 	1.659620 	0.008480 
491.67 	1.659020 	0.008230 
493.26 	1.658390 	0.007960 
494.85 	1.657730 	0.007690 
496.45 	1.657040 	0.007440 
498.04 	1.656310 	0.007210 
499.63 	1.655570 	0.007020 
501.22 	1.654830 	0.006870 
502.81 	1.654100 	0.006750 
504.40 	1.653390 	0.006670 
505.99 	1.652700 	0.006600 
507.59 	1.652020 	0.006550 
509.18 	1.651360 	0.006510 
510.77 	1.650710 	0.006480 
512.36 	1.650070 	0.006450 
513.95 	1.649430 	0.006440 
515.54 	1.648800 	0.006450 
517.13 	1.648170 	0.006480 
518.73 	1.647540 	0.006530 
520.32 	1.646940 	0.006610 
521.91 	1.646360 	0.006720 
523.50 	1.645820 	0.006850 
525.09 	1.645320 	0.006990 
526.68 	1.644850 	0.007130 
528.27 	1.644420 	0.007260 
529.86 	1.644020 	0.007370 
531.46 	1.643630 	0.007470 
533.05 	1.643260 	0.007540 
534.64 	1.642880 	0.007580 
536.23 	1.642500 	0.007620 
537.82 	1.642110 	0.007660 
539.41 	1.641700 	0.007690 
541.00 	1.641290 	0.007740 
542.59 	1.640870 	0.007800 
544.18 	1.640450 	0.007880 
545.77 	1.640040 	0.007980 
547.36 	1.639650 	0.008100 
548.95 	1.639260 	0.008240 
550.54 	1.638900 	0.008380 
552.13 	1.638560 	0.008540 
553.73 	1.638230 	0.008710 
555.32 	1.637930 	0.008890 
556.91 	1.637660 	0.009070 
558.50 	1.637410 	0.009250 
560.09 	1.637180 	0.009440 
561.68 	1.636980 	0.009610 
563.27 	1.636810 	0.009780 
564.86 	1.636660 	0.009940 
566.45 	1.636530 	0.010090 
568.04 	1.636420 	0.010220 
569.63 	1.636330 	0.010330 
571.22 	1.636260 	0.010420 
572.81 	1.636190 	0.010490 
574.40 	1.636130 	0.010540 
575.99 	1.636080 	0.010580 
577.58 	1.636040 	0.010590 
579.17 	1.636000 	0.010580 
580.76 	1.635960 	0.010550 
582.35 	1.635910 	0.010500 
583.93 	1.635860 	0.010430 
585.52 	1.635800 	0.010340 
587.11 	1.635720 	0.010240 
588.70 	1.635630 	0.010130 
590.29 	1.635530 	0.010010 
591.88 	1.635420 	0.009880 
593.47 	1.635290 	0.009750 
595.06 	1.635150 	0.009620 
596.65 	1.635010 	0.009490 
598.24 	1.634850 	0.009370 
599.83 	1.634690 	0.009250 
601.42 	1.634520 	0.009130 
603.00 	1.634340 	0.009010 
604.59 	1.634170 	0.008900 
606.18 	1.633980 	0.008790 
607.77 	1.633800 	0.008680 
609.36 	1.633610 	0.008570 
610.95 	1.633420 	0.008470 
612.54 	1.633220 	0.008370 
614.12 	1.633020 	0.008280 
615.71 	1.632830 	0.008190 
617.30 	1.632630 	0.008100 
618.89 	1.632430 	0.008010 
620.48 	1.632230 	0.007930 
622.07 	1.632030 	0.007850 
623.65 	1.631820 	0.007780 
625.24 	1.631620 	0.007710 
626.83 	1.631420 	0.007640 
628.42 	1.631220 	0.007570 
630.00 	1.631020 	0.007510 
631.59 	1.630820 	0.007450 
633.18 	1.630620 	0.007390 
634.77 	1.630420 	0.007340 
636.35 	1.630220 	0.007290 
637.94 	1.630030 	0.007250 
639.53 	1.629830 	0.007200 
641.12 	1.629640 	0.007160 
642.70 	1.629460 	0.007130 
644.29 	1.629270 	0.007090 
645.88 	1.629090 	0.007060 
647.46 	1.628910 	0.007030 
649.05 	1.628740 	0.007000 
650.64 	1.628570 	0.006970 
652.22 	1.628400 	0.006940 
653.81 	1.628240 	0.006920 
655.40 	1.628080 	0.006880 
656.98 	1.627920 	0.006850 
658.57 	1.627770 	0.006820 
660.16 	1.627610 	0.006780 
661.74 	1.627460 	0.006740 
663.33 	1.627310 	0.006700 
664.92 	1.627150 	0.006660 
666.50 	1.626990 	0.006620 
668.09 	1.626840 	0.006570 
669.67 	1.626680 	0.006530 
671.26 	1.626520 	0.006490 
672.84 	1.626360 	0.006450 
674.43 	1.626190 	0.006420 
676.02 	1.626030 	0.006380 
677.60 	1.625870 	0.006350 
679.19 	1.625710 	0.006330 
680.77 	1.625550 	0.006300 
682.36 	1.625390 	0.006280 
683.94 	1.625240 	0.006260 
685.53 	1.625090 	0.006250 
687.11 	1.624950 	0.006230 
688.70 	1.624800 	0.006220 
690.28 	1.624660 	0.006200 
691.86 	1.624520 	0.006190 
693.45 	1.624390 	0.006170 
695.03 	1.624260 	0.006150 
696.62 	1.624130 	0.006140 
698.20 	1.624010 	0.006120 
699.79 	1.623890 	0.006100 
701.37 	1.623760 	0.006070 
702.95 	1.623640 	0.006050 
704.54 	1.623520 	0.006020 
706.12 	1.623400 	0.006000 
707.71 	1.623290 	0.005970 
709.29 	1.623170 	0.005940 
710.87 	1.623050 	0.005910 
712.46 	1.622940 	0.005870 
714.04 	1.622820 	0.005840 
715.62 	1.622710 	0.005800 
717.21 	1.622590 	0.005770 
718.79 	1.622470 	0.005730 
720.37 	1.622360 	0.005690 
721.95 	1.622240 	0.005650 
723.54 	1.622120 	0.005610 
725.12 	1.622000 	0.005560 
726.70 	1.621880 	0.005520 
728.28 	1.621760 	0.005480 
729.87 	1.621640 	0.005430 
731.45 	1.621520 	0.005390 
733.03 	1.621390 	0.005350 
734.61 	1.621270 	0.005300 
736.19 	1.621140 	0.005260 
737.78 	1.621010 	0.005220 
739.36 	1.620880 	0.005170 
740.94 	1.620760 	0.005130 
742.52 	1.620630 	0.005090 
744.10 	1.620500 	0.005050 
745.68 	1.620360 	0.005010 
747.26 	1.620230 	0.004970 
748.84 	1.620100 	0.004930 
750.43 	1.619960 	0.004890 
752.01 	1.619830 	0.004860 
753.59 	1.619690 	0.004820 
755.17 	1.619560 	0.004790 
756.75 	1.619420 	0.004750 
758.33 	1.619280 	0.004720 
759.91 	1.619150 	0.004680 
761.49 	1.619010 	0.004650 
763.07 	1.618870 	0.004620 
764.65 	1.618730 	0.004590 
766.23 	1.618580 	0.004570 
767.81 	1.618440 	0.004540 
769.39 	1.618300 	0.004520 
770.97 	1.618160 	0.004490 
772.55 	1.618010 	0.004470 
774.12 	1.617870 	0.004450 
775.70 	1.617720 	0.004440 
777.28 	1.617570 	0.004420 
778.86 	1.617430 	0.004410 
780.44 	1.617280 	0.004400 
782.02 	1.617130 	0.004390 
783.60 	1.616990 	0.004390 
785.18 	1.616840 	0.004390 
786.75 	1.616700 	0.004390 
788.33 	1.616550 	0.004390 
789.91 	1.616410 	0.004400 
791.49 	1.616270 	0.004410 
793.06 	1.616130 	0.004420 
794.64 	1.615990 	0.004430 
796.22 	1.615850 	0.004450 
797.80 	1.615720 	0.004460 
799.37 	1.615580 	0.004480 
800.95 	1.615450 	0.004500 
802.53 	1.615320 	0.004520 
804.11 	1.615190 	0.004550 
805.68 	1.615070 	0.004570 
807.26 	1.614950 	0.004600 
808.83 	1.614820 	0.004620 
810.41 	1.614700 	0.004650 
811.99 	1.614580 	0.004680 
813.56 	1.614470 	0.004700 
815.14 	1.614350 	0.004730 
816.71 	1.614240 	0.004760 
818.29 	1.614130 	0.004790 
819.87 	1.614020 	0.004820 
821.44 	1.613910 	0.004850 
823.02 	1.613800 	0.004880 
824.59 	1.613700 	0.004910 
826.17 	1.613590 	0.004940 
827.74 	1.613490 	0.004980 
829.32 	1.613380 	0.005010 
830.89 	1.613280 	0.005040 
832.46 	1.613180 	0.005070 
834.04 	1.613090 	0.005100 
835.61 	1.612990 	0.005130 
837.19 	1.612890 	0.005170 
838.76 	1.612790 	0.005200 
840.33 	1.612700 	0.005230 
841.91 	1.612610 	0.005260 
843.48 	1.612510 	0.005300 
845.05 	1.612420 	0.005330 
846.63 	1.612330 	0.005360 
848.20 	1.612230 	0.005390 
849.77 	1.612140 	0.005430 
851.35 	1.612050 	0.005460 
852.92 	1.611960 	0.005490 
854.49 	1.611870 	0.005530 
856.06 	1.611780 	0.005570 
857.64 	1.611690 	0.005600 
859.21 	1.611600 	0.005640 
860.78 	1.611510 	0.005680 
862.35 	1.611420 	0.005720 
863.92 	1.611330 	0.005760 
865.49 	1.611250 	0.005810 
867.07 	1.611160 	0.005850 
868.64 	1.611080 	0.005890 
870.21 	1.611000 	0.005940 
871.78 	1.610910 	0.005990 
873.35 	1.610830 	0.006040 
874.92 	1.610750 	0.006090 
876.49 	1.610680 	0.006140 
878.06 	1.610600 	0.006190 
879.63 	1.610530 	0.006240 
881.20 	1.610460 	0.006300 
882.77 	1.610390 	0.006350 
884.34 	1.610320 	0.006410 
885.91 	1.610260 	0.006460 
887.48 	1.610200 	0.006510 
889.05 	1.610130 	0.006570 
890.62 	1.610070 	0.006630 
892.18 	1.610020 	0.006680 
893.75 	1.609960 	0.006740 
895.32 	1.609910 	0.006790 
896.89 	1.609860 	0.006850 
898.46 	1.609810 	0.006900 
900.03 	1.609760 	0.006960 
901.59 	1.609710 	0.007010 
903.16 	1.609670 	0.007060 
904.73 	1.609620 	0.007120 
906.30 	1.609580 	0.007170 
907.86 	1.609540 	0.007220 
909.43 	1.609500 	0.007270 
911.00 	1.609460 	0.007320 
912.56 	1.609420 	0.007380 
914.13 	1.609380 	0.007430 
915.70 	1.609340 	0.007480 
917.26 	1.609310 	0.007530 
918.83 	1.609280 	0.007580 
920.39 	1.609240 	0.007630 
921.96 	1.609210 	0.007680 
923.53 	1.609180 	0.007730 
925.09 	1.609150 	0.007790 
926.66 	1.609120 	0.007840 
928.22 	1.609100 	0.007890 
929.79 	1.609070 	0.007940 
931.35 	1.609050 	0.007990 
932.92 	1.609030 	0.008050 
934.48 	1.609010 	0.008100 
936.04 	1.608990 	0.008150 
937.61 	1.608980 	0.008210 
939.17 	1.608960 	0.008260 
940.74 	1.608960 	0.008310 
942.30 	1.608950 	0.008360 
943.86 	1.608950 	0.008420 
945.42 	1.608950 	0.008470 
946.99 	1.608950 	0.008520 
948.55 	1.608950 	0.008560 
950.11 	1.608960 	0.008610 
951.68 	1.608970 	0.008650 
953.24 	1.608980 	0.008700 
954.80 	1.609000 	0.008740 
956.36 	1.609010 	0.008770 
957.92 	1.609030 	0.008810 
959.48 	1.609060 	0.008840 
961.05 	1.609080 	0.008870 
962.61 	1.609110 	0.008890 
964.17 	1.609130 	0.008910 
965.73 	1.609160 	0.008930 
967.29 	1.609190 	0.008940 
968.85 	1.609220 	0.008950 
970.41 	1.609250 	0.008960 
971.97 	1.609280 	0.008960 
973.53 	1.609310 	0.008960 
975.09 	1.609330 	0.008950 
976.65 	1.609360 	0.008940 
978.21 	1.609380 	0.008930 
979.77 	1.609400 	0.008910 
981.33 	1.609420 	0.008890 
982.88 	1.609440 	0.008870 
984.44 	1.609450 	0.008840 
986.00 	1.609460 	0.008810 
987.56 	1.609470 	0.008790 
989.12 	1.609470 	0.008760 
990.68 	1.609470 	0.008730 
992.23 	1.609470 	0.008700 
993.79 	1.609470 	0.008670 
995.35 	1.609460 	0.008630 
996.90 	1.609450 	0.008600 
998.46 	1.609430 	0.008570 
1011.83 	1.609230 	0.008360 
1015.22 	1.609170 	0.008330 
1018.61 	1.609100 	0.008320 
1022.01 	1.609050 	0.008310 
1025.41 	1.608990 	0.008300 
1028.80 	1.608950 	0.008310 
1032.20 	1.608910 	0.008310 
1035.59 	1.608890 	0.008310 
1038.99 	1.608870 	0.008310 
1042.39 	1.608850 	0.008300 
1045.79 	1.608850 	0.008290 
1049.19 	1.608850 	0.008280 
1052.59 	1.608850 	0.008250 
1055.99 	1.608860 	0.008210 
1059.39 	1.608860 	0.008160 
1062.79 	1.608860 	0.008100 
1066.19 	1.608850 	0.008030 
1069.59 	1.608840 	0.007960 
1072.99 	1.608820 	0.007880 
1076.39 	1.608790 	0.007790 
1079.80 	1.608750 	0.007710 
1083.20 	1.608700 	0.007620 
1086.60 	1.608640 	0.007540 
1090.01 	1.608580 	0.007450 
1093.41 	1.608500 	0.007370 
1096.82 	1.608420 	0.007300 
1100.22 	1.608340 	0.007230 
1103.63 	1.608250 	0.007160 
1107.03 	1.608160 	0.007110 
1110.44 	1.608060 	0.007050 
1113.85 	1.607970 	0.007010 
1117.26 	1.607870 	0.006970 
1120.66 	1.607780 	0.006930 
1124.07 	1.607690 	0.006900 
1127.48 	1.607600 	0.006870 
1130.89 	1.607520 	0.006850 
1134.30 	1.607440 	0.006820 
1137.71 	1.607350 	0.006800 
1141.12 	1.607280 	0.006780 
1144.53 	1.607200 	0.006760 
1147.95 	1.607120 	0.006730 
1151.36 	1.607050 	0.006710 
1154.77 	1.606980 	0.006690 
1158.18 	1.606910 	0.006670 
1161.60 	1.606840 	0.006640 
1165.01 	1.606760 	0.006620 
1168.43 	1.606690 	0.006590 
1171.84 	1.606620 	0.006560 
1175.26 	1.606540 	0.006540 
1178.67 	1.606470 	0.006510 
1182.09 	1.606390 	0.006480 
1185.51 	1.606310 	0.006450 
1188.92 	1.606240 	0.006430 
1192.34 	1.606160 	0.006400 
1195.76 	1.606080 	0.006380 
1199.18 	1.605990 	0.006350 
1202.60 	1.605910 	0.006330 
1206.02 	1.605830 	0.006310 
1209.44 	1.605740 	0.006290 
1212.86 	1.605660 	0.006270 
1216.28 	1.605570 	0.006260 
1219.70 	1.605490 	0.006240 
1223.12 	1.605400 	0.006230 
1226.54 	1.605320 	0.006220 
1229.96 	1.605240 	0.006210 
1233.39 	1.605150 	0.006200 
1236.81 	1.605070 	0.006190 
1240.24 	1.604990 	0.006180 
1243.66 	1.604910 	0.006180 
1247.08 	1.604820 	0.006170 
1250.51 	1.604740 	0.006170 
1253.94 	1.604660 	0.006170 
1257.36 	1.604580 	0.006160 
1260.79 	1.604500 	0.006160 
1264.22 	1.604420 	0.006160 
1267.64 	1.604350 	0.006160 
1271.07 	1.604270 	0.006160 
1274.50 	1.604190 	0.006160 
1277.93 	1.604110 	0.006160 
1281.36 	1.604040 	0.006160 
1284.79 	1.603960 	0.006160 
1288.22 	1.603890 	0.006160 
1291.65 	1.603810 	0.006160 
1295.08 	1.603730 	0.006160 
1298.51 	1.603660 	0.006160 
1301.94 	1.603580 	0.006170 
1305.38 	1.603510 	0.006170 
1308.81 	1.603430 	0.006170 
1312.24 	1.603360 	0.006170 
1315.68 	1.603280 	0.006180 
1319.11 	1.603210 	0.006180 
1322.55 	1.603130 	0.006190 
1325.98 	1.603060 	0.006190 
1329.42 	1.602990 	0.006200 
1332.85 	1.602910 	0.006200 
1336.29 	1.602840 	0.006210 
1339.73 	1.602760 	0.006220 
1343.16 	1.602690 	0.006220 
1346.60 	1.602610 	0.006230 
1350.04 	1.602540 	0.006240 
1353.48 	1.602470 	0.006250 
1356.92 	1.602390 	0.006260 
1360.36 	1.602320 	0.006270 
1363.80 	1.602240 	0.006280 
1367.24 	1.602170 	0.006290 
1370.68 	1.602100 	0.006300 
1374.12 	1.602020 	0.006310 
1377.56 	1.601950 	0.006320 
1381.01 	1.601870 	0.006330 
1384.45 	1.601800 	0.006350 
1387.89 	1.601730 	0.006360 
1391.34 	1.601660 	0.006370 
1394.78 	1.601580 	0.006390 
1398.23 	1.601510 	0.006400 
1401.67 	1.601430 	0.006420 
1405.12 	1.601360 	0.006440 
1408.56 	1.601290 	0.006450 
1412.01 	1.601220 	0.006470 
1415.46 	1.601140 	0.006490 
1418.90 	1.601070 	0.006510 
1422.35 	1.601000 	0.006520 
1425.80 	1.600920 	0.006540 
1429.25 	1.600850 	0.006560 
1432.70 	1.600780 	0.006580 
1436.15 	1.600710 	0.006600 
1439.60 	1.600630 	0.006630 
1443.05 	1.600560 	0.006650 
1446.50 	1.600490 	0.006670 
1449.95 	1.600410 	0.006700 
1453.40 	1.600340 	0.006720 
1456.85 	1.600270 	0.006750 
1460.31 	1.600190 	0.006770 
1463.76 	1.600120 	0.006800 
1467.21 	1.600050 	0.006830 
1470.67 	1.599980 	0.006860 
1474.12 	1.599900 	0.006890 
1477.58 	1.599830 	0.006920 
1481.03 	1.599760 	0.006950 
1484.49 	1.599690 	0.006980 
1487.95 	1.599620 	0.007020 
1491.40 	1.599540 	0.007050 
1494.86 	1.599470 	0.007090 
1498.32 	1.599400 	0.007120 
1501.78 	1.599330 	0.007160 
1505.24 	1.599260 	0.007200 
1508.69 	1.599190 	0.007240 
