; Refractive index spectrum of BLEACHED Dow/Shipley S1800 positive photoresist
; Measured with VASE, Q. Wang, NIST, April 2015
;
; lambda/nm    n        k
192.58 	1.396780 	0.783620 
194.17 	1.402440 	0.744680 
195.76 	1.455590 	0.789190 
197.34 	1.507090 	0.784520 
198.93 	1.561360 	0.800370 
200.52 	1.617360 	0.798920 
202.10 	1.673590 	0.796500 
203.69 	1.728200 	0.783720 
205.28 	1.780180 	0.766100 
206.87 	1.828030 	0.740030 
208.45 	1.868780 	0.709420 
210.04 	1.903440 	0.675780 
211.63 	1.931080 	0.639710 
213.22 	1.951450 	0.604850 
214.81 	1.968000 	0.572080 
216.39 	1.981240 	0.540270 
217.98 	1.990740 	0.510170 
219.57 	1.998570 	0.482950 
221.16 	2.005800 	0.456620 
222.75 	2.011530 	0.431000 
224.33 	2.016080 	0.406590 
225.92 	2.020450 	0.383160 
227.51 	2.024840 	0.359520 
229.10 	2.028250 	0.334810 
230.69 	2.029770 	0.310180 
232.28 	2.030980 	0.285520 
233.87 	2.030550 	0.259010 
235.45 	2.026770 	0.232030 
237.04 	2.020200 	0.206200 
238.63 	2.013010 	0.180480 
240.22 	2.000590 	0.151070 
241.81 	1.977460 	0.127980 
243.40 	1.956570 	0.116510 
244.99 	1.941130 	0.105910 
246.58 	1.925250 	0.095160 
248.17 	1.909010 	0.086500 
249.75 	1.893160 	0.079830 
251.34 	1.877950 	0.074930 
252.93 	1.863520 	0.071600 
254.52 	1.849990 	0.069640 
256.11 	1.837390 	0.068880 
257.70 	1.825870 	0.069170 
259.29 	1.815490 	0.070190 
260.88 	1.806030 	0.071700 
262.47 	1.797340 	0.073730 
264.06 	1.789460 	0.076320 
265.65 	1.782440 	0.079430 
267.24 	1.776320 	0.082950 
268.83 	1.771040 	0.086780 
270.42 	1.766560 	0.091020 
272.01 	1.763050 	0.095710 
273.60 	1.760690 	0.100740 
275.19 	1.759610 	0.105970 
276.78 	1.759960 	0.111290 
278.37 	1.762110 	0.116340 
279.96 	1.765960 	0.120360 
281.55 	1.770940 	0.122970 
283.14 	1.776650 	0.124270 
284.73 	1.783030 	0.124320 
286.32 	1.790170 	0.123070 
287.91 	1.798420 	0.119920 
289.50 	1.807150 	0.113420 
291.09 	1.814020 	0.103140 
292.68 	1.817420 	0.090730 
294.28 	1.817110 	0.077900 
295.87 	1.813440 	0.066120 
297.46 	1.807500 	0.056570 
299.05 	1.800650 	0.049340 
300.64 	1.793680 	0.044140 
302.23 	1.787160 	0.040510 
303.82 	1.781320 	0.037930 
305.41 	1.776140 	0.035970 
307.00 	1.771530 	0.034450 
308.59 	1.767460 	0.033180 
310.18 	1.763850 	0.032020 
311.77 	1.760600 	0.030860 
313.37 	1.757590 	0.029640 
314.96 	1.754710 	0.028390 
316.55 	1.751910 	0.027120 
318.14 	1.749170 	0.025850 
319.73 	1.746460 	0.024620 
321.32 	1.743770 	0.023430 
322.91 	1.741080 	0.022310 
324.50 	1.738400 	0.021280 
326.10 	1.735710 	0.020380 
327.69 	1.733050 	0.019650 
329.28 	1.730500 	0.019110 
330.87 	1.728100 	0.018740 
332.46 	1.725920 	0.018490 
334.05 	1.724010 	0.018290 
335.64 	1.722350 	0.018000 
337.24 	1.720840 	0.017520 
338.83 	1.719320 	0.016860 
340.42 	1.717710 	0.016130 
342.01 	1.716040 	0.015440 
343.60 	1.714370 	0.014810 
345.19 	1.712750 	0.014200 
346.79 	1.711150 	0.013590 
348.38 	1.709560 	0.013000 
349.97 	1.707970 	0.012420 
351.56 	1.706390 	0.011890 
353.15 	1.704850 	0.011410 
354.75 	1.703370 	0.010940 
356.34 	1.701920 	0.010460 
357.93 	1.700480 	0.009980 
359.52 	1.699040 	0.009520 
361.11 	1.697610 	0.009090 
362.71 	1.696210 	0.008710 
364.30 	1.694870 	0.008360 
365.89 	1.693580 	0.008000 
367.48 	1.692320 	0.007620 
369.07 	1.691070 	0.007230 
370.67 	1.689820 	0.006840 
372.26 	1.688570 	0.006460 
373.85 	1.687320 	0.006110 
375.44 	1.686100 	0.005770 
377.03 	1.684890 	0.005460 
378.63 	1.683710 	0.005160 
380.22 	1.682550 	0.004860 
381.81 	1.681420 	0.004570 
383.40 	1.680310 	0.004270 
384.99 	1.679200 	0.003960 
386.59 	1.678080 	0.003640 
388.18 	1.676960 	0.003330 
389.77 	1.675820 	0.003040 
391.36 	1.674660 	0.002760 
392.96 	1.673480 	0.002520 
394.55 	1.672300 	0.002330 
396.14 	1.671130 	0.002200 
397.73 	1.670000 	0.002130 
399.32 	1.668910 	0.002100 
400.92 	1.667870 	0.002100 
402.51 	1.666880 	0.002110 
404.10 	1.665940 	0.002110 
405.69 	1.665030 	0.002120 
407.29 	1.664150 	0.002130 
408.88 	1.663300 	0.002130 
410.47 	1.662470 	0.002140 
412.06 	1.661670 	0.002130 
413.65 	1.660890 	0.002130 
415.25 	1.660130 	0.002120 
416.84 	1.659380 	0.002100 
418.43 	1.658650 	0.002080 
420.02 	1.657940 	0.002050 
421.62 	1.657240 	0.002020 
423.21 	1.656540 	0.001980 
424.80 	1.655860 	0.001940 
426.39 	1.655170 	0.001890 
427.99 	1.654490 	0.001840 
429.58 	1.653800 	0.001800 
431.17 	1.653130 	0.001770 
432.76 	1.652460 	0.001750 
434.35 	1.651810 	0.001730 
435.95 	1.651160 	0.001730 
437.54 	1.650530 	0.001730 
439.13 	1.649910 	0.001730 
440.72 	1.649310 	0.001740 
442.32 	1.648730 	0.001750 
443.91 	1.648160 	0.001750 
445.50 	1.647600 	0.001750 
447.09 	1.647040 	0.001740 
448.69 	1.646490 	0.001730 
450.28 	1.645930 	0.001720 
451.87 	1.645380 	0.001720 
453.46 	1.644830 	0.001730 
455.05 	1.644290 	0.001760 
456.65 	1.643770 	0.001790 
458.24 	1.643270 	0.001830 
459.83 	1.642780 	0.001870 
461.42 	1.642310 	0.001900 
463.01 	1.641850 	0.001930 
464.61 	1.641400 	0.001950 
466.20 	1.640950 	0.001970 
467.79 	1.640510 	0.001980 
469.38 	1.640070 	0.002000 
470.98 	1.639630 	0.002010 
472.57 	1.639200 	0.002040 
474.16 	1.638770 	0.002070 
475.75 	1.638350 	0.002100 
477.34 	1.637930 	0.002150 
478.93 	1.637530 	0.002200 
480.53 	1.637150 	0.002260 
482.12 	1.636790 	0.002330 
483.71 	1.636460 	0.002390 
485.30 	1.636150 	0.002450 
486.89 	1.635870 	0.002480 
488.49 	1.635600 	0.002490 
490.08 	1.635340 	0.002470 
491.67 	1.635070 	0.002420 
493.26 	1.634790 	0.002350 
494.85 	1.634480 	0.002270 
496.45 	1.634160 	0.002190 
498.04 	1.633820 	0.002120 
499.63 	1.633470 	0.002060 
501.22 	1.633120 	0.002010 
502.81 	1.632770 	0.001980 
504.40 	1.632430 	0.001950 
505.99 	1.632100 	0.001930 
507.59 	1.631780 	0.001900 
509.18 	1.631460 	0.001870 
510.77 	1.631150 	0.001840 
512.36 	1.630830 	0.001790 
513.95 	1.630500 	0.001750 
515.54 	1.630170 	0.001710 
517.13 	1.629820 	0.001680 
518.73 	1.629480 	0.001670 
520.32 	1.629130 	0.001670 
521.91 	1.628800 	0.001680 
523.50 	1.628480 	0.001710 
525.09 	1.628170 	0.001750 
526.68 	1.627890 	0.001790 
528.27 	1.627620 	0.001820 
529.86 	1.627360 	0.001850 
531.46 	1.627120 	0.001860 
533.05 	1.626880 	0.001870 
534.64 	1.626640 	0.001860 
536.23 	1.626400 	0.001840 
537.82 	1.626150 	0.001820 
539.41 	1.625900 	0.001790 
541.00 	1.625640 	0.001770 
542.59 	1.625380 	0.001750 
544.18 	1.625110 	0.001740 
545.77 	1.624850 	0.001730 
547.36 	1.624580 	0.001730 
548.95 	1.624330 	0.001740 
550.54 	1.624070 	0.001750 
552.13 	1.623820 	0.001760 
553.73 	1.623570 	0.001780 
555.32 	1.623330 	0.001800 
556.91 	1.623100 	0.001820 
558.50 	1.622880 	0.001850 
560.09 	1.622670 	0.001870 
561.68 	1.622460 	0.001900 
563.27 	1.622270 	0.001920 
564.86 	1.622080 	0.001940 
566.45 	1.621890 	0.001950 
568.04 	1.621720 	0.001960 
569.63 	1.621540 	0.001960 
571.22 	1.621370 	0.001950 
572.81 	1.621200 	0.001940 
574.40 	1.621030 	0.001920 
575.99 	1.620860 	0.001900 
577.58 	1.620690 	0.001880 
579.17 	1.620510 	0.001850 
580.76 	1.620340 	0.001810 
582.35 	1.620160 	0.001780 
583.93 	1.619980 	0.001740 
585.52 	1.619800 	0.001700 
587.11 	1.619610 	0.001660 
588.70 	1.619420 	0.001620 
590.29 	1.619230 	0.001580 
591.88 	1.619040 	0.001540 
593.47 	1.618840 	0.001510 
595.06 	1.618640 	0.001480 
596.65 	1.618440 	0.001450 
598.24 	1.618250 	0.001420 
599.83 	1.618050 	0.001400 
601.42 	1.617860 	0.001380 
603.00 	1.617660 	0.001360 
604.59 	1.617470 	0.001340 
606.18 	1.617280 	0.001320 
607.77 	1.617090 	0.001310 
609.36 	1.616910 	0.001290 
610.95 	1.616720 	0.001280 
612.54 	1.616540 	0.001260 
614.12 	1.616350 	0.001240 
615.71 	1.616170 	0.001230 
617.30 	1.615980 	0.001220 
618.89 	1.615800 	0.001200 
620.48 	1.615610 	0.001190 
622.07 	1.615430 	0.001180 
623.65 	1.615250 	0.001170 
625.24 	1.615070 	0.001160 
626.83 	1.614880 	0.001150 
628.42 	1.614700 	0.001150 
630.00 	1.614520 	0.001150 
631.59 	1.614340 	0.001140 
633.18 	1.614160 	0.001140 
634.77 	1.613980 	0.001150 
636.35 	1.613800 	0.001150 
637.94 	1.613630 	0.001160 
639.53 	1.613450 	0.001170 
641.12 	1.613280 	0.001190 
642.70 	1.613110 	0.001200 
644.29 	1.612950 	0.001220 
645.88 	1.612780 	0.001240 
647.46 	1.612630 	0.001260 
649.05 	1.612470 	0.001280 
650.64 	1.612320 	0.001300 
652.22 	1.612180 	0.001320 
653.81 	1.612030 	0.001340 
655.40 	1.611890 	0.001350 
656.98 	1.611760 	0.001360 
658.57 	1.611620 	0.001370 
660.16 	1.611480 	0.001380 
661.74 	1.611350 	0.001380 
663.33 	1.611210 	0.001390 
664.92 	1.611070 	0.001390 
666.50 	1.610920 	0.001390 
668.09 	1.610780 	0.001390 
669.67 	1.610630 	0.001400 
671.26 	1.610480 	0.001400 
672.84 	1.610340 	0.001410 
674.43 	1.610180 	0.001420 
676.02 	1.610030 	0.001440 
677.60 	1.609880 	0.001460 
679.19 	1.609740 	0.001480 
680.77 	1.609590 	0.001510 
682.36 	1.609450 	0.001540 
683.94 	1.609310 	0.001570 
685.53 	1.609170 	0.001600 
687.11 	1.609040 	0.001640 
688.70 	1.608910 	0.001680 
690.28 	1.608790 	0.001710 
691.86 	1.608670 	0.001750 
693.45 	1.608550 	0.001790 
695.03 	1.608430 	0.001830 
696.62 	1.608320 	0.001860 
698.20 	1.608210 	0.001900 
699.79 	1.608100 	0.001940 
701.37 	1.608000 	0.001970 
702.95 	1.607890 	0.002010 
704.54 	1.607790 	0.002040 
706.12 	1.607690 	0.002070 
707.71 	1.607590 	0.002110 
709.29 	1.607500 	0.002140 
710.87 	1.607400 	0.002170 
712.46 	1.607310 	0.002200 
714.04 	1.607220 	0.002230 
715.62 	1.607130 	0.002260 
717.21 	1.607040 	0.002290 
718.79 	1.606950 	0.002320 
720.37 	1.606870 	0.002350 
721.95 	1.606780 	0.002370 
723.54 	1.606700 	0.002400 
725.12 	1.606620 	0.002430 
726.70 	1.606540 	0.002460 
728.28 	1.606460 	0.002480 
729.87 	1.606380 	0.002510 
731.45 	1.606310 	0.002530 
733.03 	1.606230 	0.002560 
734.61 	1.606160 	0.002580 
736.19 	1.606090 	0.002610 
737.78 	1.606020 	0.002630 
739.36 	1.605950 	0.002650 
740.94 	1.605890 	0.002680 
742.52 	1.605820 	0.002700 
744.10 	1.605760 	0.002720 
745.68 	1.605700 	0.002740 
747.26 	1.605640 	0.002760 
748.84 	1.605580 	0.002770 
750.43 	1.605530 	0.002790 
752.01 	1.605470 	0.002800 
753.59 	1.605420 	0.002810 
755.17 	1.605370 	0.002820 
756.75 	1.605320 	0.002830 
758.33 	1.605270 	0.002830 
759.91 	1.605220 	0.002840 
761.49 	1.605170 	0.002840 
763.07 	1.605120 	0.002840 
764.65 	1.605070 	0.002830 
766.23 	1.605020 	0.002830 
767.81 	1.604970 	0.002820 
769.39 	1.604920 	0.002810 
770.97 	1.604870 	0.002800 
772.55 	1.604820 	0.002790 
774.12 	1.604770 	0.002770 
775.70 	1.604720 	0.002760 
777.28 	1.604660 	0.002740 
778.86 	1.604610 	0.002720 
780.44 	1.604550 	0.002700 
782.02 	1.604490 	0.002680 
783.60 	1.604440 	0.002660 
785.18 	1.604380 	0.002640 
786.75 	1.604310 	0.002620 
788.33 	1.604250 	0.002590 
789.91 	1.604190 	0.002570 
791.49 	1.604120 	0.002550 
793.06 	1.604060 	0.002520 
794.64 	1.603990 	0.002500 
796.22 	1.603920 	0.002480 
797.80 	1.603850 	0.002460 
799.37 	1.603770 	0.002430 
800.95 	1.603700 	0.002410 
802.53 	1.603630 	0.002390 
804.11 	1.603550 	0.002370 
805.68 	1.603470 	0.002350 
807.26 	1.603390 	0.002330 
808.83 	1.603320 	0.002320 
810.41 	1.603240 	0.002300 
811.99 	1.603160 	0.002290 
813.56 	1.603080 	0.002280 
815.14 	1.603000 	0.002260 
816.71 	1.602920 	0.002250 
818.29 	1.602850 	0.002240 
819.87 	1.602770 	0.002230 
821.44 	1.602690 	0.002220 
823.02 	1.602610 	0.002220 
824.59 	1.602540 	0.002210 
826.17 	1.602460 	0.002200 
827.74 	1.602380 	0.002200 
829.32 	1.602310 	0.002190 
830.89 	1.602230 	0.002190 
832.46 	1.602150 	0.002180 
834.04 	1.602080 	0.002180 
835.61 	1.602000 	0.002170 
837.19 	1.601930 	0.002170 
838.76 	1.601860 	0.002160 
840.33 	1.601780 	0.002160 
841.91 	1.601700 	0.002160 
843.48 	1.601630 	0.002150 
845.05 	1.601550 	0.002150 
846.63 	1.601480 	0.002150 
848.20 	1.601400 	0.002150 
849.77 	1.601330 	0.002150 
851.35 	1.601250 	0.002150 
852.92 	1.601170 	0.002150 
854.49 	1.601100 	0.002150 
856.06 	1.601020 	0.002160 
857.64 	1.600950 	0.002160 
859.21 	1.600870 	0.002170 
860.78 	1.600800 	0.002170 
862.35 	1.600720 	0.002180 
863.92 	1.600650 	0.002190 
865.49 	1.600570 	0.002200 
867.07 	1.600500 	0.002210 
868.64 	1.600430 	0.002220 
870.21 	1.600360 	0.002240 
871.78 	1.600290 	0.002250 
873.35 	1.600220 	0.002270 
874.92 	1.600150 	0.002280 
876.49 	1.600090 	0.002300 
878.06 	1.600020 	0.002310 
879.63 	1.599960 	0.002330 
881.20 	1.599900 	0.002340 
882.77 	1.599840 	0.002360 
884.34 	1.599780 	0.002380 
885.91 	1.599720 	0.002400 
887.48 	1.599660 	0.002410 
889.05 	1.599610 	0.002430 
890.62 	1.599550 	0.002440 
892.18 	1.599500 	0.002460 
893.75 	1.599450 	0.002470 
895.32 	1.599400 	0.002490 
896.89 	1.599350 	0.002500 
898.46 	1.599290 	0.002510 
900.03 	1.599250 	0.002530 
901.59 	1.599190 	0.002540 
903.16 	1.599150 	0.002550 
904.73 	1.599100 	0.002560 
906.30 	1.599050 	0.002570 
907.86 	1.599000 	0.002580 
909.43 	1.598950 	0.002590 
911.00 	1.598900 	0.002600 
912.56 	1.598850 	0.002610 
914.13 	1.598800 	0.002620 
915.70 	1.598760 	0.002630 
917.26 	1.598710 	0.002640 
918.83 	1.598660 	0.002650 
920.39 	1.598610 	0.002660 
921.96 	1.598570 	0.002670 
923.53 	1.598520 	0.002690 
925.09 	1.598470 	0.002700 
926.66 	1.598420 	0.002710 
928.22 	1.598380 	0.002720 
929.79 	1.598330 	0.002740 
931.35 	1.598290 	0.002750 
932.92 	1.598250 	0.002760 
934.48 	1.598210 	0.002780 
936.04 	1.598170 	0.002790 
937.61 	1.598130 	0.002800 
939.17 	1.598090 	0.002820 
940.74 	1.598050 	0.002830 
942.30 	1.598020 	0.002840 
943.86 	1.597980 	0.002850 
945.42 	1.597950 	0.002860 
946.99 	1.597920 	0.002870 
948.55 	1.597890 	0.002880 
950.11 	1.597860 	0.002890 
951.68 	1.597830 	0.002900 
953.24 	1.597800 	0.002900 
954.80 	1.597780 	0.002900 
956.36 	1.597750 	0.002910 
957.92 	1.597730 	0.002900 
959.48 	1.597700 	0.002900 
961.05 	1.597680 	0.002900 
962.61 	1.597650 	0.002890 
964.17 	1.597630 	0.002880 
965.73 	1.597600 	0.002870 
967.29 	1.597570 	0.002860 
968.85 	1.597540 	0.002840 
970.41 	1.597510 	0.002830 
971.97 	1.597480 	0.002810 
973.53 	1.597450 	0.002790 
975.09 	1.597410 	0.002770 
976.65 	1.597370 	0.002750 
978.21 	1.597330 	0.002720 
979.77 	1.597290 	0.002700 
981.33 	1.597240 	0.002680 
982.88 	1.597190 	0.002660 
984.44 	1.597140 	0.002640 
986.00 	1.597090 	0.002620 
987.56 	1.597030 	0.002600 
989.12 	1.596980 	0.002580 
990.68 	1.596920 	0.002560 
992.23 	1.596860 	0.002540 
993.79 	1.596790 	0.002530 
995.35 	1.596730 	0.002520 
996.90 	1.596660 	0.002510 
998.46 	1.596600 	0.002500 
1011.83 	1.596010 	0.002550 
1015.22 	1.595880 	0.002590 
1018.61 	1.595750 	0.002640 
1022.01 	1.595640 	0.002700 
1025.41 	1.595530 	0.002760 
1028.80 	1.595440 	0.002820 
1032.20 	1.595360 	0.002880 
1035.59 	1.595290 	0.002930 
1038.99 	1.595220 	0.002990 
1042.39 	1.595170 	0.003030 
1045.79 	1.595120 	0.003070 
1049.19 	1.595080 	0.003100 
1052.59 	1.595040 	0.003120 
1055.99 	1.594990 	0.003130 
1059.39 	1.594950 	0.003130 
1062.79 	1.594900 	0.003130 
1066.19 	1.594850 	0.003130 
1069.59 	1.594790 	0.003120 
1072.99 	1.594740 	0.003100 
1076.39 	1.594670 	0.003090 
1079.80 	1.594600 	0.003070 
1083.20 	1.594530 	0.003060 
1086.60 	1.594450 	0.003040 
1090.01 	1.594370 	0.003030 
1093.41 	1.594290 	0.003020 
1096.82 	1.594200 	0.003010 
1100.22 	1.594120 	0.003000 
1103.63 	1.594030 	0.003000 
1107.03 	1.593940 	0.003000 
1110.44 	1.593860 	0.003000 
1113.85 	1.593770 	0.003010 
1117.26 	1.593690 	0.003010 
1120.66 	1.593600 	0.003020 
1124.07 	1.593520 	0.003030 
1127.48 	1.593440 	0.003030 
1130.89 	1.593360 	0.003040 
1134.30 	1.593280 	0.003050 
1137.71 	1.593200 	0.003060 
1141.12 	1.593120 	0.003070 
1144.53 	1.593040 	0.003080 
1147.95 	1.592970 	0.003090 
1151.36 	1.592890 	0.003090 
1154.77 	1.592810 	0.003100 
1158.18 	1.592740 	0.003110 
1161.60 	1.592660 	0.003120 
1165.01 	1.592580 	0.003130 
1168.43 	1.592510 	0.003130 
1171.84 	1.592430 	0.003140 
1175.26 	1.592350 	0.003150 
1178.67 	1.592280 	0.003160 
1182.09 	1.592200 	0.003160 
1185.51 	1.592120 	0.003170 
1188.92 	1.592050 	0.003180 
1192.34 	1.591970 	0.003190 
1195.76 	1.591890 	0.003200 
1199.18 	1.591810 	0.003210 
1202.60 	1.591740 	0.003230 
1206.02 	1.591660 	0.003240 
1209.44 	1.591580 	0.003250 
1212.86 	1.591500 	0.003260 
1216.28 	1.591430 	0.003280 
1219.70 	1.591350 	0.003290 
1223.12 	1.591270 	0.003300 
1226.54 	1.591200 	0.003320 
1229.96 	1.591120 	0.003330 
1233.39 	1.591050 	0.003350 
1236.81 	1.590970 	0.003360 
1240.24 	1.590900 	0.003380 
1243.66 	1.590820 	0.003400 
1247.08 	1.590750 	0.003410 
1250.51 	1.590670 	0.003430 
1253.94 	1.590600 	0.003450 
1257.36 	1.590520 	0.003470 
1260.79 	1.590450 	0.003480 
1264.22 	1.590380 	0.003500 
1267.64 	1.590300 	0.003520 
1271.07 	1.590230 	0.003540 
1274.50 	1.590160 	0.003560 
1277.93 	1.590080 	0.003580 
1281.36 	1.590010 	0.003600 
1284.79 	1.589940 	0.003620 
1288.22 	1.589870 	0.003640 
1291.65 	1.589790 	0.003660 
1295.08 	1.589720 	0.003680 
1298.51 	1.589650 	0.003710 
1301.94 	1.589570 	0.003730 
1305.38 	1.589500 	0.003750 
1308.81 	1.589430 	0.003780 
1312.24 	1.589360 	0.003800 
1315.68 	1.589290 	0.003820 
1319.11 	1.589210 	0.003850 
1322.55 	1.589140 	0.003880 
1325.98 	1.589070 	0.003900 
1329.42 	1.589000 	0.003930 
1332.85 	1.588930 	0.003960 
1336.29 	1.588850 	0.003980 
1339.73 	1.588780 	0.004010 
1343.16 	1.588710 	0.004040 
1346.60 	1.588640 	0.004070 
1350.04 	1.588570 	0.004100 
1353.48 	1.588500 	0.004130 
1356.92 	1.588430 	0.004170 
1360.36 	1.588360 	0.004200 
1363.80 	1.588290 	0.004230 
1367.24 	1.588220 	0.004260 
1370.68 	1.588150 	0.004300 
1374.12 	1.588080 	0.004340 
1377.56 	1.588010 	0.004370 
1381.01 	1.587940 	0.004410 
1384.45 	1.587880 	0.004450 
1387.89 	1.587810 	0.004490 
1391.34 	1.587740 	0.004530 
1394.78 	1.587680 	0.004570 
1398.23 	1.587610 	0.004610 
1401.67 	1.587550 	0.004660 
1405.12 	1.587480 	0.004700 
1408.56 	1.587420 	0.004750 
1412.01 	1.587360 	0.004790 
1415.46 	1.587300 	0.004840 
1418.90 	1.587240 	0.004890 
1422.35 	1.587180 	0.004940 
1425.80 	1.587120 	0.004990 
1429.25 	1.587060 	0.005040 
1432.70 	1.587010 	0.005090 
1436.15 	1.586950 	0.005130 
1439.60 	1.586900 	0.005190 
1443.05 	1.586850 	0.005240 
1446.50 	1.586800 	0.005290 
1449.95 	1.586750 	0.005340 
1453.40 	1.586700 	0.005390 
1456.85 	1.586650 	0.005440 
1460.31 	1.586600 	0.005490 
1463.76 	1.586560 	0.005550 
1467.21 	1.586510 	0.005600 
1470.67 	1.586470 	0.005650 
1474.12 	1.586430 	0.005700 
1477.58 	1.586380 	0.005750 
1481.03 	1.586340 	0.005800 
1484.49 	1.586300 	0.005850 
1487.95 	1.586260 	0.005900 
1491.40 	1.586220 	0.005950 
1494.86 	1.586180 	0.006000 
1498.32 	1.586140 	0.006050 
1501.78 	1.586100 	0.006100 
1505.24 	1.586060 	0.006150 
1508.69 	1.586020 	0.006200 
1512.15 	1.585980 	0.006260 
1515.61 	1.585940 	0.006310 
1519.07 	1.585900 	0.006360 
1522.54 	1.585860 	0.006410 
1526.00 	1.585820 	0.006470 
1529.46 	1.585780 	0.006520 
1532.92 	1.585740 	0.006580 
1536.38 	1.585700 	0.006630 
1539.85 	1.585670 	0.006690 
1543.31 	1.585630 	0.006750 
1546.78 	1.585590 	0.006810 
1550.24 	1.585550 	0.006880 
1553.70 	1.585520 	0.006940 
1557.17 	1.585480 	0.007010 
1560.64 	1.585450 	0.007080 
1564.10 	1.585420 	0.007150 
1567.57 	1.585380 	0.007220 
1571.04 	1.585360 	0.007290 
1574.50 	1.585330 	0.007370 
1577.97 	1.585300 	0.007450 
1581.44 	1.585280 	0.007530 
1584.91 	1.585260 	0.007610 
1588.38 	1.585240 	0.007690 
1591.85 	1.585220 	0.007780 
1595.32 	1.585210 	0.007870 
1598.79 	1.585210 	0.007960 
1602.26 	1.585200 	0.008050 
1605.73 	1.585210 	0.008140 
1609.21 	1.585210 	0.008230 
1612.68 	1.585220 	0.008320 
1616.15 	1.585230 	0.008400 
1619.63 	1.585250 	0.008500 
1623.10 	1.585270 	0.008580 
1626.57 	1.585300 	0.008670 
1630.05 	1.585330 	0.008760 
1633.52 	1.585370 	0.008840 
1637.00 	1.585400 	0.008920 
1640.48 	1.585450 	0.009010 
1643.95 	1.585490 	0.009080 
1647.43 	1.585540 	0.009160 
1650.91 	1.585600 	0.009230 
1654.39 	1.585650 	0.009310 
1657.86 	1.585710 	0.009370 
1661.34 	1.585780 	0.009440 
1664.82 	1.585850 	0.009500 
1668.30 	1.585910 	0.009560 
1671.78 	1.585990 	0.009610 
1675.26 	1.586060 	0.009670 
1678.75 	1.586140 	0.009710 
1682.23 	1.586220 	0.009760 
1685.71 	1.586300 	0.009790 
1689.19 	1.586390 	0.009830 
