;  Optical constants for cubic Si0.25Ge0.75 (alternate)
; 
;   taken from:
;
;   'Handbook of Optical Constants of Solids II', Ed. by Edward D. Palik,
;   Academic Press, Inc., 1991.
;   
;    Lambda (nm)            n            k
;-----------------------------------------
221.39	1.28000000	2.89000000
225.42	1.33000000	2.87000000
229.59	1.34000000	2.87000000
233.93	1.33000000	2.90000000
238.42	1.33000000	2.96000000
239.34	1.32000000	2.98000000
240.27	1.33000000	3.00000000
241.21	1.33000000	3.01000000
242.15	1.33000000	3.04000000
243.10	1.33000000	3.06000000
244.06	1.33000000	3.08000000
245.02	1.34000000	3.10000000
245.99	1.34000000	3.12000000
246.97	1.35000000	3.15000000
247.96	1.35000000	3.17000000
248.96	1.36000000	3.20000000
249.96	1.37000000	3.22000000
250.97	1.37000000	3.25000000
251.99	1.38000000	3.28000000
253.02	1.40000000	3.31000000
254.06	1.40000000	3.34000000
255.10	1.42000000	3.37000000
256.16	1.43000000	3.40000000
257.22	1.44000000	3.44000000
258.29	1.45000000	3.47000000
259.37	1.47000000	3.50000000
260.46	1.48000000	3.54000000
261.56	1.50000000	3.58000000
262.67	1.52000000	3.62000000
263.79	1.54000000	3.66000000
264.92	1.56000000	3.70000000
266.05	1.58000000	3.74000000
267.20	1.61000000	3.79000000
268.36	1.64000000	3.84000000
269.52	1.67000000	3.89000000
270.70	1.71000000	3.94000000
271.89	1.74000000	3.99000000
273.08	1.79000000	4.05000000
274.29	1.84000000	4.10000000
275.51	1.89000000	4.16000000
276.74	1.95000000	4.23000000
277.98	2.02000000	4.29000000
279.23	2.10000000	4.35000000
280.50	2.19000000	4.41000000
281.77	2.30000000	4.46000000
283.06	2.42000000	4.51000000
284.36	2.54000000	4.54000000
285.67	2.68000000	4.55000000
286.99	2.81000000	4.54000000
288.33	2.95000000	4.51000000
289.67	3.08000000	4.48000000
291.03	3.19000000	4.42000000
292.41	3.29000000	4.35000000
293.79	3.38000000	4.29000000
295.19	3.46000000	4.21000000
296.60	3.52000000	4.14000000
298.03	3.58000000	4.06000000
299.47	3.62000000	3.99000000
300.92	3.67000000	3.92000000
302.39	3.70000000	3.85000000
303.87	3.72000000	3.79000000
305.37	3.75000000	3.73000000
306.88	3.77000000	3.68000000
308.41	3.79000000	3.63000000
309.95	3.80000000	3.58000000
311.51	3.82000000	3.53000000
313.08	3.83000000	3.49000000
314.67	3.84000000	3.45000000
316.28	3.86000000	3.41000000
317.90	3.87000000	3.37000000
319.54	3.88000000	3.34000000
321.19	3.89000000	3.30000000
322.87	3.90000000	3.27000000
324.56	3.92000000	3.24000000
326.26	3.92000000	3.22000000
327.99	3.93000000	3.19000000
329.73	3.95000000	3.16000000
331.50	3.96000000	3.13000000
333.28	3.96000000	3.11000000
335.08	3.98000000	3.09000000
336.90	3.99000000	3.06000000
338.74	4.00000000	3.04000000
340.60	4.01000000	3.02000000
342.49	4.02000000	3.00000000
344.39	4.03000000	2.98000000
346.31	4.04000000	2.96000000
348.26	4.05000000	2.94000000
350.23	4.06000000	2.93000000
352.22	4.08000000	2.91000000
354.23	4.09000000	2.89000000
356.26	4.11000000	2.87000000
358.32	4.13000000	2.85000000
360.41	4.14000000	2.84000000
362.51	4.16000000	2.82000000
364.65	4.18000000	2.80000000
366.81	4.20000000	2.78000000
368.99	4.21000000	2.76000000
371.20	4.23000000	2.75000000
373.43	4.25000000	2.72000000
375.70	4.27000000	2.70000000
377.99	4.28000000	2.68000000
380.31	4.30000000	2.65000000
382.65	4.31000000	2.62000000
385.03	4.32000000	2.60000000
387.44	4.34000000	2.57000000
389.87	4.35000000	2.55000000
392.34	4.35000000	2.52000000
394.84	4.36000000	2.49000000
397.37	4.36000000	2.47000000
399.94	4.36000000	2.45000000
402.53	4.36000000	2.43000000
405.16	4.36000000	2.41000000
407.83	4.36000000	2.40000000
410.53	4.36000000	2.39000000
413.27	4.36000000	2.38000000
416.04	4.36000000	2.38000000
418.85	4.37000000	2.38000000
421.70	4.38000000	2.38000000
424.59	4.38000000	2.38000000
427.52	4.40000000	2.39000000
430.49	4.42000000	2.39000000
433.50	4.43000000	2.40000000
436.55	4.45000000	2.41000000
439.64	4.48000000	2.41000000
442.79	4.50000000	2.42000000
445.97	4.54000000	2.42000000
449.20	4.57000000	2.43000000
452.48	4.62000000	2.44000000
455.81	4.66000000	2.45000000
459.19	4.72000000	2.45000000
462.61	4.78000000	2.45000000
466.09	4.85000000	2.45000000
469.62	4.92000000	2.44000000
473.21	5.00000000	2.42000000
476.85	5.07000000	2.39000000
480.54	5.15000000	2.35000000
484.30	5.23000000	2.30000000
488.11	5.30000000	2.24000000
491.98	5.37000000	2.18000000
495.92	5.45000000	2.11000000
499.92	5.53000000	2.03000000
503.98	5.59000000	1.93000000
508.11	5.65000000	1.82000000
512.31	5.70000000	1.70000000
516.58	5.72000000	1.57000000
520.92	5.74000000	1.43000000
525.34	5.72000000	1.30000000
529.83	5.69000000	1.17000000
534.40	5.65000000	1.08000000
539.04	5.60000000	0.98000000
543.77	5.55000000	0.89000000
548.58	5.49000000	0.81000000
553.48	5.44000000	0.75000000
558.47	5.39000000	0.67000000
563.54	5.33000000	0.64000000
568.72	5.29000000	0.58000000
573.98	5.23000000	0.54000000
579.35	5.19000000	0.49000000
584.81	5.15000000	0.46000000
590.38	5.11000000	0.43000000
596.06	5.07000000	0.38000000
601.85	5.03000000	0.37000000
607.75	5.00000000	0.35000000
613.76	4.96000000	0.33000000
619.90	4.93000000	0.00000000
626.16	4.90000000	0.30000000
632.55	4.87000000	0.00000000
639.07	4.83000000	0.00000000
645.73	4.81000000	0.00000000
652.53	4.78000000	0.00000000
659.47	4.75000000	0.00000000
666.56	4.72000000	0.00000000
673.80	4.69000000	0.00000000
681.21	4.67000000	0.00000000
688.78	4.65000000	0.00000000
696.52	4.63000000	0.00000000
704.43	4.60000000	0.00000000
712.53	4.58000000	0.00000000
720.81	4.56000000	0.00000000
729.29	4.54000000	0.00000000
737.98	4.51000000	0.00000000
746.87	4.49000000	0.00000000
