;  Optical constants for cubic Si0.5Ge0.5 (alternate)
; 
;   taken from:
;
;   'Handbook of Optical Constants of Solids II', Ed. by Edward D. Palik,
;   Academic Press, Inc., 1991.
;   
;    Lambda (nm)            n            k
;-----------------------------------------
221.39	1.32000000	2.87000000
225.42	1.37000000	2.88000000
229.59	1.39000000	2.88000000
233.93	1.39000000	2.91000000
234.81	1.39000000	2.91000000
235.70	1.39000000	2.93000000
236.60	1.39000000	2.93000000
237.51	1.40000000	2.95000000
238.42	1.40000000	2.96000000
239.34	1.40000000	2.98000000
240.27	1.40000000	2.99000000
241.21	1.39000000	3.01000000
242.15	1.40000000	3.03000000
243.10	1.40000000	3.05000000
244.06	1.41000000	3.07000000
245.02	1.41000000	3.09000000
245.99	1.41000000	3.11000000
246.97	1.42000000	3.13000000
247.96	1.43000000	3.16000000
248.96	1.43000000	3.19000000
249.96	1.44000000	3.21000000
250.97	1.45000000	3.24000000
251.99	1.46000000	3.26000000
253.02	1.47000000	3.30000000
254.06	1.48000000	3.32000000
255.10	1.49000000	3.36000000
256.16	1.51000000	3.39000000
257.22	1.52000000	3.42000000
258.29	1.54000000	3.46000000
259.37	1.55000000	3.49000000
260.46	1.57000000	3.52000000
261.56	1.59000000	3.56000000
262.67	1.60000000	3.60000000
263.79	1.63000000	3.64000000
264.92	1.66000000	3.68000000
266.05	1.68000000	3.72000000
267.20	1.71000000	3.77000000
268.36	1.74000000	3.82000000
269.52	1.77000000	3.87000000
270.70	1.81000000	3.91000000
271.89	1.85000000	3.97000000
273.08	1.89000000	4.02000000
274.29	1.95000000	4.07000000
275.51	2.00000000	4.13000000
276.74	2.06000000	4.18000000
277.98	2.13000000	4.23000000
279.23	2.21000000	4.29000000
280.50	2.30000000	4.34000000
281.77	2.40000000	4.39000000
283.06	2.51000000	4.43000000
284.36	2.63000000	4.46000000
285.67	2.76000000	4.47000000
286.99	2.90000000	4.46000000
288.33	3.02000000	4.44000000
289.67	3.15000000	4.40000000
291.03	3.26000000	4.34000000
292.41	3.36000000	4.28000000
293.79	3.45000000	4.21000000
295.19	3.53000000	4.14000000
296.60	3.59000000	4.06000000
298.03	3.65000000	3.99000000
299.47	3.70000000	3.92000000
300.92	3.74000000	3.85000000
302.39	3.77000000	3.79000000
303.87	3.80000000	3.73000000
305.37	3.82000000	3.67000000
306.88	3.84000000	3.61000000
308.41	3.86000000	3.56000000
309.95	3.87000000	3.52000000
311.51	3.89000000	3.47000000
313.08	3.90000000	3.42000000
314.67	3.92000000	3.39000000
316.28	3.93000000	3.35000000
317.90	3.94000000	3.31000000
319.54	3.95000000	3.28000000
321.19	3.97000000	3.25000000
322.87	3.98000000	3.22000000
324.56	3.99000000	3.19000000
326.26	4.00000000	3.16000000
327.99	4.01000000	3.14000000
329.73	4.02000000	3.11000000
331.50	4.04000000	3.09000000
333.28	4.04000000	3.06000000
335.08	4.06000000	3.04000000
336.90	4.07000000	3.02000000
338.74	4.08000000	3.00000000
340.60	4.10000000	2.98000000
342.49	4.11000000	2.96000000
344.39	4.12000000	2.94000000
346.31	4.14000000	2.93000000
348.26	4.15000000	2.91000000
350.23	4.16000000	2.89000000
352.22	4.19000000	2.88000000
354.23	4.20000000	2.87000000
356.26	4.22000000	2.85000000
358.32	4.24000000	2.83000000
360.41	4.26000000	2.82000000
362.51	4.28000000	2.81000000
364.65	4.31000000	2.79000000
366.81	4.33000000	2.77000000
368.99	4.35000000	2.76000000
371.20	4.38000000	2.74000000
373.43	4.41000000	2.72000000
375.70	4.43000000	2.69000000
377.99	4.46000000	2.67000000
380.31	4.48000000	2.65000000
382.65	4.51000000	2.62000000
385.03	4.53000000	2.60000000
387.44	4.55000000	2.57000000
389.87	4.56000000	2.55000000
392.34	4.58000000	2.52000000
394.84	4.60000000	2.50000000
397.37	4.61000000	2.48000000
399.94	4.63000000	2.46000000
402.53	4.64000000	2.45000000
405.16	4.66000000	2.44000000
407.83	4.68000000	2.43000000
410.53	4.71000000	2.42000000
413.27	4.74000000	2.42000000
416.04	4.78000000	2.41000000
418.85	4.82000000	2.41000000
421.70	4.87000000	2.40000000
424.59	4.92000000	2.39000000
427.52	4.98000000	2.38000000
430.49	5.05000000	2.35000000
433.50	5.12000000	2.32000000
436.55	5.19000000	2.28000000
439.64	5.27000000	2.23000000
442.79	5.34000000	2.16000000
445.97	5.42000000	2.09000000
449.20	5.48000000	2.00000000
452.48	5.55000000	1.90000000
455.81	5.60000000	1.79000000
459.19	5.64000000	1.66000000
462.61	5.65000000	1.53000000
466.09	5.65000000	1.40000000
469.62	5.63000000	1.28000000
473.21	5.59000000	1.17000000
476.85	5.55000000	1.07000000
480.54	5.50000000	0.99000000
484.30	5.45000000	0.91000000
488.11	5.40000000	0.83000000
491.98	5.34000000	0.77000000
495.92	5.29000000	0.72000000
499.92	5.24000000	0.66000000
503.98	5.19000000	0.61000000
508.11	5.15000000	0.58000000
512.31	5.10000000	0.52000000
516.58	5.06000000	0.49000000
520.92	5.01000000	0.46000000
525.34	4.97000000	0.44000000
529.83	4.93000000	0.41000000
534.40	4.89000000	0.40000000
539.04	4.85000000	0.35000000
543.77	4.81000000	0.36000000
548.58	4.77000000	0.34000000
553.48	4.74000000	0.30000000
558.47	4.71000000	0.00000000
563.54	4.67000000	0.00000000
568.72	4.64000000	0.00000000
573.98	4.61000000	0.00000000
579.35	4.58000000	0.00000000
584.81	4.55000000	0.00000000
590.38	4.52000000	0.00000000
596.06	4.50000000	0.00000000
601.85	4.47000000	0.00000000
607.75	4.45000000	0.00000000
613.76	4.42000000	0.00000000
619.90	4.40000000	0.00000000
626.16	4.38000000	0.00000000
632.55	4.36000000	0.00000000
639.07	4.34000000	0.00000000
645.73	4.32000000	0.00000000
652.53	4.30000000	0.00000000
659.47	4.28000000	0.00000000
666.56	4.26000000	0.00000000
673.80	4.25000000	0.00000000
681.21	4.23000000	0.00000000
688.78	4.21000000	0.00000000
696.52	4.20000000	0.00000000
704.43	4.18000000	0.00000000
712.53	4.16000000	0.00000000
720.81	4.14000000	0.00000000
729.29	4.13000000	0.00000000
737.98	4.11000000	0.00000000
746.87	4.09000000	0.00000000
