;  Optical constants for Si0.8Ge0.2 (alternate)
; 
;   taken from:
;
;   'Handbook of Optical Constants of Solids II', Ed. by Edward D. Palik,
;   Academic Press, Inc., 1991.
;   
;    Lambda (nm)            n            k
;-----------------------------------------
221.39	1.28000000	3.06000000
225.42	1.35000000	3.11000000
229.59	1.43000000	3.13000000
233.93	1.47000000	3.14000000
234.81	1.47000000	3.15000000
235.70	1.48000000	3.15000000
236.60	1.48000000	3.16000000
237.51	1.48000000	3.17000000
238.42	1.48000000	3.18000000
239.34	1.48000000	3.20000000
240.27	1.48000000	3.21000000
241.21	1.48000000	3.23000000
242.15	1.48000000	3.25000000
243.10	1.45000000	3.27000000
244.06	1.48000000	3.29000000
245.02	1.48000000	3.31000000
245.99	1.49000000	3.34000000
246.97	1.49000000	3.37000000
247.96	1.50000000	3.39000000
248.96	1.50000000	3.42000000
249.96	1.51000000	3.45000000
250.97	1.51000000	3.48000000
251.99	1.52000000	3.52000000
253.02	1.53000000	3.55000000
254.06	1.54000000	3.59000000
255.10	1.55000000	3.62000000
256.16	1.57000000	3.66000000
257.22	1.58000000	3.70000000
258.29	1.60000000	3.74000000
259.37	1.61000000	3.78000000
260.46	1.63000000	3.83000000
261.56	1.65000000	3.88000000
262.67	1.68000000	3.93000000
263.79	1.70000000	3.98000000
264.92	1.73000000	4.03000000
266.05	1.76000000	4.08000000
267.20	1.79000000	4.14000000
268.36	1.83000000	4.20000000
269.52	1.87000000	4.26000000
270.70	1.92000000	4.33000000
271.89	1.97000000	4.39000000
273.08	2.03000000	4.46000000
274.29	2.10000000	4.52000000
275.51	2.18000000	4.59000000
276.74	2.26000000	4.66000000
277.98	2.35000000	4.72000000
279.23	2.45000000	4.78000000
280.50	2.56000000	4.84000000
281.77	2.68000000	4.90000000
283.06	2.81000000	4.94000000
284.36	2.96000000	4.98000000
285.67	3.13000000	5.00000000
286.99	3.30000000	5.00000000
288.33	3.48000000	4.97000000
289.67	3.64000000	4.91000000
291.03	3.80000000	4.83000000
292.41	3.93000000	4.73000000
293.79	4.03000000	4.62000000
295.19	4.13000000	4.51000000
296.60	4.20000000	4.40000000
298.03	4.25000000	4.30000000
299.47	4.29000000	4.21000000
300.92	4.33000000	4.11000000
302.39	4.36000000	4.03000000
303.87	4.38000000	3.95000000
305.37	4.40000000	3.88000000
306.88	4.41000000	3.81000000
308.41	4.43000000	3.75000000
309.95	4.44000000	3.69000000
311.51	4.45000000	3.64000000
313.08	4.46000000	3.59000000
314.67	4.47000000	3.55000000
316.28	4.48000000	3.50000000
317.90	4.50000000	3.46000000
319.54	4.51000000	3.42000000
321.19	4.52000000	3.39000000
322.87	4.53000000	3.36000000
324.56	4.54000000	3.32000000
326.26	4.56000000	3.30000000
327.99	4.57000000	3.27000000
329.73	4.59000000	3.24000000
331.50	4.60000000	3.21000000
333.28	4.62000000	3.19000000
335.08	4.64000000	3.16000000
336.90	4.65000000	3.14000000
338.74	4.67000000	3.12000000
340.60	4.69000000	3.10000000
342.49	4.71000000	3.08000000
344.39	4.73000000	3.06000000
346.31	4.75000000	3.05000000
348.26	4.77000000	3.03000000
350.23	4.81000000	3.05000000
352.22	4.82000000	3.01000000
354.23	4.86000000	3.00000000
356.26	4.90000000	2.99000000
358.32	4.94000000	2.98000000
360.41	4.98000000	2.97000000
362.51	5.03000000	2.96000000
364.65	5.09000000	2.95000000
366.81	5.15000000	2.93000000
368.99	5.21000000	2.91000000
371.20	5.29000000	2.89000000
373.43	5.37000000	2.86000000
375.70	5.46000000	2.82000000
377.99	5.55000000	2.76000000
380.31	5.64000000	2.70000000
382.65	5.73000000	2.61000000
385.03	5.82000000	2.52000000
387.44	5.89000000	2.41000000
389.87	5.96000000	2.30000000
392.34	6.01000000	2.17000000
394.84	6.06000000	2.03000000
397.37	6.10000000	1.88000000
399.94	6.11000000	1.73000000
402.53	6.11000000	1.58000000
405.16	6.08000000	1.44000000
407.83	6.04000000	1.30000000
410.53	5.99000000	1.17000000
413.27	5.92000000	1.06000000
416.04	5.86000000	0.95000000
418.85	5.78000000	0.87000000
421.70	5.71000000	0.79000000
424.59	5.64000000	0.73000000
427.52	5.57000000	0.66000000
430.49	5.50000000	0.60000000
433.50	5.44000000	0.56000000
436.55	5.38000000	0.51000000
439.64	5.32000000	0.48000000
442.79	5.26000000	0.44000000
445.97	5.21000000	0.42000000
449.20	5.16000000	0.39000000
452.48	5.11000000	0.37000000
455.81	5.06000000	0.34000000
459.19	5.02000000	0.32000000
462.61	4.97000000	0.30000000
466.09	4.93000000	0.00000000
469.62	4.89000000	0.00000000
473.21	4.85000000	0.00000000
476.85	4.82000000	0.00000000
480.54	4.78000000	0.00000000
484.30	4.75000000	0.00000000
488.11	4.71000000	0.00000000
491.98	4.68000000	0.00000000
495.92	4.65000000	0.00000000
499.92	4.62000000	0.00000000
503.98	4.59000000	0.00000000
508.11	4.57000000	0.00000000
512.31	4.54000000	0.00000000
516.58	4.51000000	0.00000000
520.92	4.49000000	0.00000000
525.34	4.46000000	0.00000000
529.83	4.44000000	0.00000000
534.40	4.41000000	0.00000000
539.04	4.39000000	0.00000000
543.77	4.37000000	0.00000000
548.58	4.35000000	0.00000000
553.48	4.33000000	0.00000000
558.47	4.31000000	0.00000000
563.54	4.29000000	0.00000000
568.72	4.27000000	0.00000000
573.98	4.25000000	0.00000000
579.35	4.23000000	0.00000000
584.81	4.21000000	0.00000000
590.38	4.19000000	0.00000000
596.06	4.18000000	0.00000000
601.85	4.16000000	0.00000000
607.75	4.14000000	0.00000000
613.76	4.13000000	0.00000000
619.90	4.11000000	0.00000000
626.16	4.10000000	0.00000000
632.55	4.08000000	0.00000000
639.07	4.07000000	0.00000000
645.73	4.05000000	0.00000000
652.53	4.04000000	0.00000000
659.47	4.03000000	0.00000000
666.56	4.01000000	0.00000000
673.80	4.00000000	0.00000000
681.21	3.99000000	0.00000000
688.78	3.98000000	0.00000000
696.52	3.97000000	0.00000000
704.43	3.95000000	0.00000000
712.53	3.94000000	0.00000000
720.81	3.93000000	0.00000000
729.29	3.92000000	0.00000000
737.98	3.91000000	0.00000000
746.87	3.90000000	0.00000000
