; Refractive index of Silicon Nitride deposited
; in Si by Noel Technologies
; Measured at U. of Texas at Austin by C. Brooks, 10/25/2013
; lamba/nm	 n	 k
211.100 	2.475000 	0.192000 
212.700 	2.466000 	0.179000 
214.300 	2.458000 	0.167000 
215.900 	2.451000 	0.156000 
217.500 	2.443000 	0.146000 
219.100 	2.435000 	0.136000 
220.700 	2.428000 	0.128000 
222.300 	2.421000 	0.119000 
223.900 	2.414000 	0.111000 
225.500 	2.406000 	0.104000 
227.100 	2.399000 	0.097000 
228.700 	2.391000 	0.091000 
230.300 	2.384000 	0.085000 
231.900 	2.377000 	0.080000 
233.500 	2.370000 	0.076000 
235.100 	2.363000 	0.071000 
236.700 	2.356000 	0.067000 
238.300 	2.350000 	0.063000 
239.900 	2.343000 	0.059000 
241.500 	2.336000 	0.056000 
243.100 	2.329000 	0.053000 
244.700 	2.323000 	0.050000 
246.300 	2.317000 	0.048000 
247.900 	2.311000 	0.045000 
249.500 	2.305000 	0.043000 
251.100 	2.300000 	0.041000 
252.700 	2.294000 	0.039000 
254.300 	2.289000 	0.037000 
255.900 	2.284000 	0.035000 
257.500 	2.279000 	0.034000 
259.100 	2.274000 	0.032000 
260.700 	2.270000 	0.030000 
262.300 	2.265000 	0.028000 
263.900 	2.260000 	0.026000 
265.500 	2.256000 	0.024000 
267.100 	2.251000 	0.022000 
268.700 	2.246000 	0.020000 
270.300 	2.241000 	0.019000 
271.900 	2.236000 	0.018000 
273.500 	2.231000 	0.017000 
275.100 	2.227000 	0.016000 
276.700 	2.223000 	0.016000 
278.300 	2.219000 	0.015000 
279.900 	2.216000 	0.014000 
281.500 	2.212000 	0.013000 
283.100 	2.209000 	0.011000 
284.700 	2.205000 	0.008000 
286.300 	2.200000 	0.006000 
287.900 	2.196000 	0.005000 
289.500 	2.190000 	0.004000 
291.100 	2.185000 	0.004000 
292.700 	2.180000 	0.004000 
294.300 	2.176000 	0.004000 
295.900 	2.172000 	0.005000 
297.500 	2.169000 	0.005000 
299.100 	2.166000 	0.004000 
300.700 	2.162000 	0.004000 
302.300 	2.159000 	0.004000 
303.900 	2.155000 	0.004000 
305.500 	2.153000 	0.003000 
307.100 	2.149000 	0.004000 
308.700 	2.146000 	0.004000 
310.300 	2.143000 	0.004000 
311.900 	2.141000 	0.004000 
313.500 	2.138000 	0.004000 
315.100 	2.135000 	0.004000 
316.700 	2.133000 	0.004000 
318.300 	2.130000 	0.004000 
319.900 	2.128000 	0.004000 
321.500 	2.126000 	0.005000 
323.100 	2.124000 	0.005000 
324.700 	2.121000 	0.004000 
326.300 	2.119000 	0.004000 
327.900 	2.117000 	0.004000 
329.500 	2.115000 	0.004000 
331.100 	2.113000 	0.004000 
332.700 	2.112000 	0.004000 
334.300 	2.110000 	0.004000 
335.900 	2.107000 	0.004000 
337.500 	2.106000 	0.004000 
339.100 	2.104000 	0.004000 
340.700 	2.103000 	0.004000 
342.300 	2.101000 	0.004000 
343.900 	2.099000 	0.005000 
345.500 	2.097000 	0.004000 
347.100 	2.096000 	0.004000 
348.700 	2.094000 	0.004000 
350.300 	2.093000 	0.004000 
351.900 	2.092000 	0.004000 
353.500 	2.091000 	0.004000 
355.100 	2.089000 	0.004000 
356.700 	2.088000 	0.004000 
358.300 	2.087000 	0.003000 
359.900 	2.084000 	0.002000 
361.500 	2.083000 	0.002000 
363.100 	2.082000 	0.003000 
364.700 	2.080000 	0.004000 
366.300 	2.079000 	0.004000 
367.900 	2.078000 	0.004000 
369.500 	2.077000 	0.003000 
371.100 	2.076000 	0.003000 
372.700 	2.073000 	0.003000 
374.300 	2.070000 	0.003000 
375.900 	2.066000 	0.003000 
377.500 	2.061000 	0.003000 
379.100 	2.056000 	0.003000 
380.700 	2.052000 	0.003000 
382.300 	2.047000 	0.002000 
383.900 	2.043000 	0.001000 
385.500 	2.040000 	0.000000 
387.100 	2.038000 	0.000000 
388.700 	2.039000 	0.000000 
390.300 	2.047000 	0.000000 
391.900 	2.055000 	0.000000 
393.500 	2.056000 	0.000000 
395.100 	2.055000 	0.000000 
396.700 	2.054000 	0.000000 
398.300 	2.053000 	0.000000 
399.900 	2.052000 	0.000000 
401.500 	2.051000 	0.000000 
403.100 	2.050000 	0.000000 
404.700 	2.049000 	0.000000 
406.300 	2.048000 	0.000000 
407.900 	2.047000 	0.000000 
409.500 	2.046000 	0.000000 
411.200 	2.045000 	0.001000 
412.800 	2.044000 	0.000000 
414.400 	2.044000 	0.000000 
416.100 	2.043000 	0.000000 
417.600 	2.042000 	0.000000 
419.200 	2.041000 	0.001000 
420.800 	2.040000 	0.000000 
422.400 	2.039000 	0.001000 
424.100 	2.038000 	0.000000 
425.600 	2.038000 	0.000000 
427.200 	2.037000 	0.000000 
428.800 	2.036000 	0.000000 
430.400 	2.035000 	0.000000 
432.000 	2.035000 	0.000000 
433.600 	2.034000 	0.000000 
435.200 	2.033000 	0.000000 
436.800 	2.032000 	0.000000 
438.400 	2.031000 	0.000000 
440.000 	2.031000 	0.000000 
441.600 	2.030000 	0.000000 
443.200 	2.029000 	0.000000 
444.800 	2.028000 	0.000000 
446.400 	2.027000 	0.000000 
448.000 	2.027000 	0.000000 
449.600 	2.026000 	0.000000 
451.200 	2.025000 	0.000000 
452.800 	2.024000 	0.000000 
454.400 	2.024000 	0.000000 
456.000 	2.023000 	0.000000 
457.600 	2.022000 	0.000000 
459.200 	2.021000 	0.000000 
460.800 	2.021000 	0.000000 
462.400 	2.020000 	0.000000 
464.000 	2.019000 	0.000000 
465.600 	2.019000 	0.000000 
467.200 	2.018000 	0.000000 
468.800 	2.017000 	0.000000 
470.400 	2.016000 	0.000000 
472.000 	2.017000 	0.000000 
473.600 	2.015000 	0.000000 
475.200 	2.015000 	0.000000 
476.800 	2.014000 	0.000000 
478.400 	2.014000 	0.000000 
480.000 	2.013000 	0.000000 
481.600 	2.013000 	0.000000 
483.200 	2.012000 	0.000000 
484.800 	2.011000 	0.000000 
486.400 	2.010000 	0.001000 
488.000 	2.010000 	0.000000 
489.600 	2.010000 	0.000000 
491.200 	2.010000 	0.001000 
492.800 	2.009000 	0.000000 
494.400 	2.008000 	0.001000 
496.000 	2.007000 	0.000000 
497.600 	2.007000 	0.001000 
499.200 	2.007000 	0.001000 
500.800 	2.006000 	0.001000 
502.400 	2.006000 	0.001000 
504.000 	2.005000 	0.001000 
505.600 	2.005000 	0.001000 
507.200 	2.004000 	0.002000 
508.800 	2.003000 	0.001000 
510.400 	2.003000 	0.002000 
512.000 	2.003000 	0.002000 
513.600 	2.003000 	0.001000 
515.200 	2.003000 	0.002000 
516.800 	2.002000 	0.002000 
518.400 	2.001000 	0.002000 
520.000 	2.001000 	0.002000 
521.600 	2.000000 	0.002000 
523.200 	2.000000 	0.002000 
524.800 	1.999000 	0.002000 
526.400 	1.998000 	0.002000 
528.000 	1.999000 	0.002000 
529.600 	1.998000 	0.003000 
531.200 	1.998000 	0.002000 
532.800 	1.998000 	0.002000 
534.400 	1.998000 	0.002000 
536.000 	1.997000 	0.002000 
537.600 	1.997000 	0.002000 
539.200 	1.997000 	0.002000 
540.800 	1.997000 	0.002000 
542.400 	1.996000 	0.002000 
544.000 	1.996000 	0.002000 
545.600 	1.995000 	0.002000 
547.200 	1.995000 	0.003000 
548.800 	1.995000 	0.003000 
550.400 	1.994000 	0.003000 
552.100 	1.993000 	0.003000 
553.600 	1.993000 	0.003000 
555.200 	1.994000 	0.003000 
556.800 	1.993000 	0.003000 
558.300 	1.992000 	0.003000 
559.900 	1.992000 	0.003000 
561.500 	1.992000 	0.003000 
563.100 	1.991000 	0.003000 
564.700 	1.992000 	0.003000 
566.300 	1.991000 	0.003000 
567.900 	1.990000 	0.003000 
569.500 	1.990000 	0.004000 
571.100 	1.991000 	0.003000 
572.700 	1.990000 	0.004000 
574.300 	1.990000 	0.004000 
575.900 	1.990000 	0.004000 
577.500 	1.990000 	0.003000 
579.100 	1.989000 	0.004000 
580.700 	1.989000 	0.004000 
582.300 	1.988000 	0.004000 
583.900 	1.988000 	0.004000 
585.500 	1.986000 	0.004000 
587.100 	1.987000 	0.004000 
588.700 	1.988000 	0.004000 
590.300 	1.987000 	0.005000 
591.900 	1.988000 	0.004000 
593.500 	1.987000 	0.004000 
595.100 	1.987000 	0.004000 
596.700 	1.987000 	0.004000 
598.300 	1.987000 	0.004000 
599.900 	1.987000 	0.004000 
601.500 	1.985000 	0.004000 
603.100 	1.985000 	0.005000 
604.700 	1.984000 	0.005000 
606.300 	1.984000 	0.005000 
607.900 	1.985000 	0.004000 
609.500 	1.985000 	0.004000 
611.100 	1.985000 	0.005000 
612.600 	1.984000 	0.004000 
614.200 	1.986000 	0.004000 
615.800 	1.983000 	0.005000 
617.400 	1.984000 	0.005000 
619.000 	1.983000 	0.005000 
620.600 	1.984000 	0.005000 
622.200 	1.981000 	0.005000 
623.800 	1.982000 	0.005000 
625.400 	1.983000 	0.005000 
627.000 	1.982000 	0.005000 
628.600 	1.982000 	0.005000 
630.200 	1.983000 	0.005000 
631.800 	1.982000 	0.005000 
633.400 	1.982000 	0.005000 
635.000 	1.981000 	0.005000 
636.600 	1.982000 	0.005000 
638.200 	1.982000 	0.005000 
639.800 	1.982000 	0.005000 
641.400 	1.981000 	0.005000 
643.100 	1.981000 	0.006000 
644.500 	1.981000 	0.005000 
646.100 	1.980000 	0.006000 
647.700 	1.980000 	0.006000 
649.300 	1.980000 	0.006000 
650.900 	1.980000 	0.006000 
652.500 	1.981000 	0.005000 
654.100 	1.981000 	0.005000 
655.700 	1.979000 	0.006000 
657.300 	1.982000 	0.005000 
658.900 	1.984000 	0.003000 
660.500 	1.980000 	0.004000 
662.100 	1.979000 	0.005000 
663.700 	1.980000 	0.005000 
665.300 	1.979000 	0.006000 
666.900 	1.978000 	0.006000 
668.500 	1.978000 	0.006000 
670.000 	1.979000 	0.005000 
671.600 	1.978000 	0.006000 
673.200 	1.979000 	0.005000 
674.800 	1.979000 	0.005000 
676.400 	1.976000 	0.007000 
678.000 	1.977000 	0.006000 
679.600 	1.977000 	0.006000 
681.200 	1.977000 	0.006000 
682.800 	1.976000 	0.007000 
684.400 	1.975000 	0.007000 
686.000 	1.978000 	0.006000 
687.600 	1.977000 	0.005000 
689.200 	1.977000 	0.006000 
690.700 	1.978000 	0.005000 
692.300 	1.978000 	0.005000 
693.900 	1.975000 	0.006000 
695.500 	1.976000 	0.006000 
697.100 	1.976000 	0.005000 
698.700 	1.976000 	0.006000 
700.300 	1.976000 	0.006000 
701.900 	1.976000 	0.007000 
703.500 	1.976000 	0.006000 
705.100 	1.976000 	0.006000 
706.700 	1.975000 	0.006000 
708.200 	1.975000 	0.006000 
709.800 	1.977000 	0.006000 
711.400 	1.976000 	0.005000 
713.000 	1.976000 	0.005000 
714.600 	1.975000 	0.005000 
716.200 	1.975000 	0.006000 
717.800 	1.974000 	0.007000 
719.400 	1.975000 	0.006000 
721.000 	1.976000 	0.005000 
722.600 	1.976000 	0.005000 
724.100 	1.974000 	0.006000 
725.700 	1.976000 	0.005000 
727.300 	1.973000 	0.008000 
728.900 	1.974000 	0.007000 
730.500 	1.974000 	0.006000 
732.100 	1.974000 	0.006000 
733.700 	1.973000 	0.007000 
735.300 	1.973000 	0.007000 
736.900 	1.973000 	0.006000 
738.400 	1.972000 	0.007000 
740.000 	1.974000 	0.006000 
741.600 	1.974000 	0.006000 
743.200 	1.974000 	0.006000 
744.800 	1.971000 	0.008000 
746.400 	1.972000 	0.007000 
748.000 	1.973000 	0.006000 
749.600 	1.974000 	0.006000 
751.200 	1.972000 	0.006000 
752.700 	1.974000 	0.006000 
754.300 	1.973000 	0.006000 
755.900 	1.974000 	0.006000 
757.500 	1.974000 	0.006000 
759.100 	1.974000 	0.006000 
760.700 	1.972000 	0.007000 
762.300 	1.969000 	0.008000 
763.800 	1.972000 	0.007000 
765.400 	1.973000 	0.006000 
767.000 	1.974000 	0.004000 
768.600 	1.972000 	0.007000 
770.200 	1.971000 	0.006000 
771.800 	1.973000 	0.006000 
773.400 	1.974000 	0.005000 
775.100 	1.969000 	0.008000 
776.500 	1.971000 	0.007000 
778.100 	1.974000 	0.005000 
779.700 	1.976000 	0.004000 
781.300 	1.971000 	0.007000 
782.900 	1.969000 	0.007000 
784.500 	1.968000 	0.007000 
786.000 	1.973000 	0.006000 
787.600 	1.971000 	0.007000 
789.200 	1.971000 	0.006000 
790.800 	1.971000 	0.006000 
792.400 	1.967000 	0.008000 
794.000 	1.970000 	0.007000 
795.600 	1.971000 	0.007000 
797.100 	1.973000 	0.005000 
798.700 	1.968000 	0.006000 
