;UO 
;UO Si80Ge20.ASC: Values of n and k for cubic silicon germanium
;UO alloy (Si0.80Ge0.20) from various references in HOCII (pg. 629).
;UO References are 4, 6, 8, 11. 
;UO 
;UO From HANDBOOK OF OPTICAL CONSTANTS IN SOLIDS II edited by Edward D.
;UO Palik. Copyright (c) 1991 by Academic Press, Inc. Reproduced by
;UO permission of the publisher.
;UO ---------------------------------------------------------------- 
;UO        nm        n        k
;UO ----------------------------------------------------------------	
;N  7
;L    Wavelength[nm]        n        k
221.40	1.48000000	1.28000000
225.40	1.56000000	1.35000000
229.60	1.62000000	1.43000000
233.90	1.66000000	1.47000000
238.40	1.67000000	1.48000000
243.10	1.67000000	1.45000000
248.00	1.67000000	1.50000000
253.00	1.69000000	1.53000000
258.30	1.75000000	1.60000000
263.80	1.88000000	1.70000000
269.50	2.07000000	1.87000000
270.70	2.12000000	1.92000000
271.90	2.19000000	1.97000000
273.10	2.25000000	2.03000000
274.30	2.33000000	2.10000000
275.50	2.41000000	2.18000000
276.80	2.51000000	2.26000000
278.00	2.60000000	2.35000000
279.20	2.71000000	2.45000000
280.50	2.83000000	2.56000000
281.80	2.96000000	2.68000000
283.10	3.10000000	2.81000000
284.40	3.25000000	2.96000000
285.70	3.41000000	3.13000000
287.00	3.59000000	3.30000000
288.30	3.76000000	3.48000000
289.70	3.92000000	3.64000000
291.00	4.04000000	3.80000000
292.40	4.15000000	3.93000000
293.80	4.23000000	4.03000000
295.20	4.32000000	4.13000000
296.60	4.40000000	4.20000000
298.00	4.45000000	4.25000000
299.50	4.47000000	4.29000000
300.90	4.49000000	4.33000000
302.40	4.51000000	4.36000000
303.90	4.52000000	4.38000000
305.40	4.52000000	4.40000000
306.90	4.53000000	4.41000000
308.40	4.53000000	4.43000000
310.00	4.53000000	4.44000000
317.90	4.54000000	4.50000000
326.30	4.55000000	4.56000000
335.10	4.60000000	4.64000000
344.40	4.66000000	4.73000000
354.20	4.77000000	4.86000000
356.30	4.80000000	4.90000000
358.30	4.84000000	4.94000000
360.40	4.88000000	4.98000000
362.50	4.92000000	5.03000000
364.70	4.98000000	5.09000000
366.80	5.03000000	5.15000000
369.00	5.10000000	5.21000000
371.20	5.17000000	5.29000000
373.40	5.24000000	5.37000000
375.70	5.32000000	5.46000000
378.00	5.40000000	5.55000000
380.30	5.48000000	5.64000000
382.70	5.55000000	5.73000000
385.00	5.62000000	5.82000000
387.50	5.68000000	5.89000000
389.90	5.73000000	5.96000000
392.40	5.76000000	6.01000000
394.90	5.79000000	6.06000000
397.40	5.80000000	6.10000000
400.00	5.79000000	6.11000000
413.30	5.49000000	5.92000000
427.50	5.15000000	5.57000000
442.80	4.88000000	5.26000000
459.20	4.65000000	5.02000000
476.90	4.50000000	4.82000000
495.90	4.39000000	4.65000000
516.60	4.30000000	4.51000000
539.10	4.23000000	4.39000000
563.60	4.16000000	4.29000000
590.40	4.11000000	4.19000000
619.90	4.05000000	4.11000000
652.60	4.00000000	4.04000000
688.80	3.96000000	3.98000000
729.30	3.91000000	3.92000000
885.60	3.80000000	0.00442000
953.70	3.76000000	0.00253000
1033.00	3.73000000	0.00109000
1127.00	3.69000000	0.00022200
1239.00	3.65000000	0.00001390
