; Refractive index spectrum for Si by Vuye-20C
;
; G. Vuye et al.. Temperature dependence of the dielectric function of silicon using in situ spectroscopic ellipsometry, <a href="http://dx.doi.org/10.1016/0040-6090(93)90082-Z"><i>Thin Solid Films</i> <b>233</b>, 166-170 (1993)</a>
;
; 20 Â°C; Crysal orientation: <111>
;
; lambda/nm    n     k
263.80 	1.82500000 	4.17500000 
265.20 	1.85400000 	4.26200000 
266.60 	1.89900000 	4.34100000 
268.10 	1.95400000 	4.43900000 
269.50 	2.01400000 	4.54300000 
271.00 	2.09900000 	4.65900000 
272.50 	2.18800000 	4.73500000 
274.00 	2.29300000 	4.85500000 
275.50 	2.42600000 	4.94100000 
277.10 	2.57400000 	5.03100000 
278.60 	2.72300000 	5.11100000 
280.20 	2.87700000 	5.15800000 
281.80 	3.03700000 	5.23300000 
283.40 	3.23200000 	5.28000000 
285.00 	3.40600000 	5.33200000 
286.70 	3.66800000 	5.34700000 
288.30 	3.92600000 	5.35300000 
290.00 	4.20500000 	5.27200000 
291.70 	4.45400000 	5.14200000 
293.50 	4.65900000 	4.94900000 
295.20 	4.79100000 	4.74000000 
297.00 	4.88500000 	4.54800000 
298.80 	4.92800000 	4.36400000 
300.60 	4.98500000 	4.20600000 
302.40 	4.98600000 	4.06700000 
304.30 	5.00900000 	3.94100000 
306.10 	5.02500000 	3.82700000 
308.00 	5.02400000 	3.74400000 
310.00 	5.02900000 	3.64500000 
311.90 	5.03400000 	3.57500000 
313.90 	5.03900000 	3.49200000 
315.90 	5.03500000 	3.44400000 
317.90 	5.03200000 	3.39200000 
320.00 	5.05100000 	3.34700000 
322.00 	5.06800000 	3.28600000 
324.10 	5.06600000 	3.25800000 
326.30 	5.09100000 	3.21300000 
328.40 	5.12000000 	3.17400000 
330.60 	5.13500000 	3.14600000 
332.80 	5.15900000 	3.11200000 
335.10 	5.17700000 	3.08300000 
337.40 	5.21800000 	3.05000000 
339.70 	5.24700000 	3.03200000 
342.00 	5.27700000 	3.00900000 
344.40 	5.31000000 	3.00500000 
346.80 	5.36300000 	3.00800000 
349.30 	5.42900000 	3.01800000 
351.70 	5.48700000 	3.02800000 
354.20 	5.60100000 	3.05600000 
356.80 	5.75200000 	3.09200000 
359.40 	5.96700000 	3.10500000 
362.00 	6.25100000 	3.03700000 
364.70 	6.56300000 	2.86900000 
367.40 	6.82100000 	2.56200000 
370.10 	6.98900000 	2.16300000 
372.90 	7.00400000 	1.75000000 
375.70 	6.89900000 	1.40400000 
378.60 	6.73500000 	1.06800000 
381.50 	6.54800000 	0.87100000 
384.40 	6.36900000 	0.69500000 
387.50 	6.19100000 	0.58700000 
390.50 	6.04100000 	0.48600000 
393.60 	5.89700000 	0.44000000 
396.70 	5.76400000 	0.38500000 
399.90 	5.64900000 	0.32600000 
403.20 	5.54300000 	0.29700000 
406.50 	5.45000000 	0.25900000 
409.90 	5.35600000 	0.23200000 
413.30 	5.27900000 	0.20300000 
416.80 	5.19700000 	0.18700000 
420.30 	5.12600000 	0.17100000 
423.90 	5.05600000 	0.15400000 
427.50 	4.99400000 	0.14200000 
431.20 	4.93300000 	0.13000000 
435.00 	4.87200000 	0.12100000 
438.90 	4.82500000 	0.10800000 
442.80 	4.77000000 	0.10100000 
446.80 	4.72200000 	0.09500000 
450.90 	4.67700000 	0.08600000 
455.00 	4.63100000 	0.08000000 
459.20 	4.59100000 	0.06900000 
463.50 	4.54900000 	0.06260000 
467.90 	4.51000000 	0.05680000 
472.30 	4.47100000 	0.04820000 
476.90 	4.43500000 	0.04270000 
481.50 	4.40200000 	0.03930000 
486.20 	4.36800000 	0.03620000 
491.00 	4.33700000 	0.03290000 
495.90 	4.30900000 	0.02800000 
500.90 	4.28100000 	0.02400000 
506.10 	4.25200000 	0.02280000 
511.30 	4.22400000 	0.01890000 
516.60 	4.20000000 	0.01440000 
522.00 	4.17700000 	0.01220000 
527.60 	4.15300000 	0.01090000 
533.30 	4.13100000 	0.01000000 
539.10 	4.10900000 	0.00800000 
545.00 	4.08900000 	0.00750000 
551.00 	4.06800000 	0.00600000 
557.20 	4.04900000 	0.00640000 
563.60 	4.02900000 	0.00520000 
570.00 	4.01200000 	0.00470000 
576.70 	3.99500000 	0.00450000 
583.50 	3.97700000 	0.00380000 
590.40 	3.96000000 	0.00350000 
597.50 	3.94410000 	0.00260000 
604.80 	3.92910000 	0.00200000 
612.30 	3.91440000 	0.00240000 
619.90 	3.90000000 	0.00170000 
627.80 	3.88600000 	0.00130000 
635.80 	3.87230000 	0.00080000 
644.10 	3.85890000 	0.00130000 
652.50 	3.84500000 	0.00170000 
661.20 	3.83300000 	0.00210000 
670.20 	3.82050000 	0.00170000 
679.40 	3.80840000 	0.00240000 
688.80 	3.79600000 	0.00290000 
698.50 	3.78510000 	0.00260000 
708.50 	3.77390000 	0.00240000 
718.70 	3.76310000 	0.00240000 
729.30 	3.75300000 	0.00290000 
740.20 	3.74230000 	0.00260000 
751.40 	3.73240000 	0.00400000 
763.00 	3.72280000 	0.00440000 
774.90 	3.71600000 	0.00120000 
787.20 	3.70460000 	0.00290000 
799.90 	3.69600000 	0.00470000 
813.00 	3.68770000 	0.00500000 
826.60 	3.67800000 	0.00460000 
