; Refractive index spectrum for Si by Vuye-400C
;
; G. Vuye et al.. Temperature dependence of the dielectric function of silicon using in situ spectroscopic ellipsometry, <a href="http://dx.doi.org/10.1016/0040-6090(93)90082-Z"><i>Thin Solid Films</i> <b>233</b>, 166-170 (1993)</a>
;
; 400 Â°C; Crysal orientation: <111>
;
; lambda/nm    n     k
263.80 	2.04900000 	3.99700000 
265.20 	2.06800000 	4.05200000 
266.60 	2.11300000 	4.08900000 
268.10 	2.14700000 	4.17300000 
269.50 	2.18600000 	4.25100000 
271.00 	2.25100000 	4.30700000 
272.50 	2.30600000 	4.36700000 
274.00 	2.37100000 	4.44400000 
275.50 	2.45000000 	4.51500000 
277.10 	2.53000000 	4.57600000 
278.60 	2.64700000 	4.66300000 
280.20 	2.75600000 	4.73700000 
281.80 	2.85200000 	4.79300000 
283.40 	2.96300000 	4.85800000 
285.00 	3.09900000 	4.89600000 
286.70 	3.24100000 	4.95400000 
288.30 	3.40800000 	4.98700000 
290.00 	3.57000000 	5.02400000 
291.70 	3.77400000 	5.02600000 
293.50 	3.96000000 	5.00000000 
295.20 	4.18700000 	4.96800000 
297.00 	4.36200000 	4.87000000 
298.80 	4.53500000 	4.75400000 
300.60 	4.70000000 	4.63000000 
302.40 	4.82600000 	4.47600000 
304.30 	4.91300000 	4.32400000 
306.10 	4.98000000 	4.17500000 
308.00 	5.02500000 	4.04300000 
310.00 	5.06000000 	3.91200000 
311.90 	5.08500000 	3.79100000 
313.90 	5.10900000 	3.70900000 
315.90 	5.11800000 	3.61600000 
317.90 	5.13300000 	3.52700000 
320.00 	5.13500000 	3.44900000 
322.00 	5.14800000 	3.36800000 
324.10 	5.16200000 	3.31900000 
326.30 	5.16800000 	3.25300000 
328.40 	5.18900000 	3.18900000 
330.60 	5.19100000 	3.14600000 
332.80 	5.21100000 	3.09200000 
335.10 	5.22600000 	3.05200000 
337.40 	5.23900000 	2.99800000 
339.70 	5.27200000 	2.96200000 
342.00 	5.27700000 	2.92000000 
344.40 	5.31000000 	2.87900000 
346.80 	5.33000000 	2.85700000 
349.30 	5.36400000 	2.81700000 
351.70 	5.40900000 	2.78700000 
354.20 	5.44500000 	2.75900000 
356.80 	5.49900000 	2.72300000 
359.40 	5.54300000 	2.70400000 
362.00 	5.60600000 	2.67900000 
364.70 	5.70500000 	2.64400000 
367.40 	5.78200000 	2.60200000 
370.10 	5.90000000 	2.52600000 
372.90 	6.01900000 	2.44400000 
375.70 	6.13500000 	2.31800000 
378.60 	6.25700000 	2.15700000 
381.50 	6.34500000 	1.96900000 
384.40 	6.39800000 	1.75900000 
387.50 	6.39900000 	1.53500000 
390.50 	6.34500000 	1.31800000 
393.60 	6.29200000 	1.11200000 
396.70 	6.18300000 	0.96500000 
399.90 	6.06700000 	0.81500000 
403.20 	5.97000000 	0.69700000 
406.50 	5.85500000 	0.62600000 
409.90 	5.76100000 	0.53500000 
413.30 	5.66000000 	0.46800000 
416.80 	5.56400000 	0.41700000 
420.30 	5.47700000 	0.36500000 
423.90 	5.39500000 	0.33600000 
427.50 	5.31700000 	0.30100000 
431.20 	5.24500000 	0.26900000 
435.00 	5.17700000 	0.23900000 
438.90 	5.10600000 	0.22400000 
442.80 	5.04700000 	0.20800000 
446.80 	4.98700000 	0.19200000 
450.90 	4.93500000 	0.16700000 
455.00 	4.88200000 	0.14800000 
459.20 	4.82900000 	0.13900000 
463.50 	4.78200000 	0.13200000 
467.90 	4.73600000 	0.11300000 
472.30 	4.69200000 	0.10400000 
476.90 	4.64800000 	0.10300000 
481.50 	4.60800000 	0.09300000 
486.20 	4.56900000 	0.08600000 
491.00 	4.53500000 	0.07200000 
495.90 	4.49800000 	0.07200000 
500.90 	4.46600000 	0.06700000 
506.10 	4.43000000 	0.06100000 
511.30 	4.39900000 	0.05500000 
516.60 	4.37000000 	0.04700000 
522.00 	4.34200000 	0.04200000 
527.60 	4.31300000 	0.04200000 
533.30 	4.28500000 	0.03600000 
539.10 	4.26000000 	0.03200000 
545.00 	4.23300000 	0.03000000 
551.00 	4.20700000 	0.02900000 
557.20 	4.18900000 	0.02100000 
563.60 	4.16500000 	0.02100000 
570.00 	4.14300000 	0.02000000 
576.70 	4.12200000 	0.02000000 
583.50 	4.10300000 	0.01700000 
590.40 	4.08400000 	0.01600000 
597.50 	4.06800000 	0.01600000 
604.80 	4.05060000 	0.01300000 
612.30 	4.03200000 	0.01200000 
619.90 	4.01400000 	0.01200000 
627.80 	3.99500000 	0.01200000 
635.80 	3.97700000 	0.01000000 
644.10 	3.96300000 	0.01200000 
652.50 	3.95200000 	0.01100000 
661.20 	3.93400000 	0.00900000 
670.20 	3.92300000 	0.00900000 
679.40 	3.90900000 	0.00700000 
688.80 	3.89700000 	0.00700000 
698.50 	3.88280000 	0.00700000 
708.50 	3.87410000 	0.00620000 
718.70 	3.86200000 	0.00420000 
729.30 	3.84800000 	0.00200000 
740.20 	3.83700000 	0.00060000 
751.40 	3.82900000 	0.00130000 
763.00 	3.81900000 	0.00130000 
774.90 	3.80800000 	0.00200000 
787.20 	3.79800000 	0.00100000 
799.90 	3.78900000 	0.00060000 
813.00 	3.78000000 	0.00080000 
826.60 	3.76900000 	0.00200000 
