; Refractive index spectrum for Si by Vuye-350C
;
; G. Vuye et al.. Temperature dependence of the dielectric function of silicon using in situ spectroscopic ellipsometry, <a href="http://dx.doi.org/10.1016/0040-6090(93)90082-Z"><i>Thin Solid Films</i> <b>233</b>, 166-170 (1993)</a>
;
; 350 Â°C; Crysal orientation: <111>
;
; lambda/nm    n     k
263.80 	2.03400000 	4.01600000 
265.20 	2.07700000 	4.07500000 
266.60 	2.11100000 	4.14300000 
268.10 	2.16100000 	4.20000000 
269.50 	2.19000000 	4.27900000 
271.00 	2.25000000 	4.35700000 
272.50 	2.31000000 	4.43000000 
274.00 	2.38100000 	4.49500000 
275.50 	2.45800000 	4.57100000 
277.10 	2.55000000 	4.65700000 
278.60 	2.64900000 	4.70200000 
280.20 	2.75500000 	4.79800000 
281.80 	2.88300000 	4.85900000 
283.40 	3.02600000 	4.91600000 
285.00 	3.16300000 	4.97200000 
286.70 	3.30400000 	5.00100000 
288.30 	3.49000000 	5.05600000 
290.00 	3.68200000 	5.07800000 
291.70 	3.87600000 	5.06400000 
293.50 	4.09800000 	5.03200000 
295.20 	4.31900000 	4.95200000 
297.00 	4.48100000 	4.86300000 
298.80 	4.65600000 	4.70500000 
300.60 	4.78500000 	4.57200000 
302.40 	4.88200000 	4.42000000 
304.30 	4.96900000 	4.26800000 
306.10 	5.03500000 	4.12000000 
308.00 	5.07100000 	3.98800000 
310.00 	5.08800000 	3.87900000 
311.90 	5.10500000 	3.76500000 
313.90 	5.13800000 	3.65200000 
315.90 	5.13800000 	3.57000000 
317.90 	5.14600000 	3.47800000 
320.00 	5.14600000 	3.41400000 
322.00 	5.14800000 	3.34600000 
324.10 	5.17500000 	3.27900000 
326.30 	5.17700000 	3.22200000 
328.40 	5.18600000 	3.16300000 
330.60 	5.20700000 	3.12400000 
332.80 	5.21300000 	3.07400000 
335.10 	5.23500000 	3.03500000 
337.40 	5.24800000 	2.99100000 
339.70 	5.27200000 	2.95200000 
342.00 	5.30100000 	2.91300000 
344.40 	5.32100000 	2.87800000 
346.80 	5.35800000 	2.85000000 
349.30 	5.38400000 	2.80800000 
351.70 	5.41800000 	2.80600000 
354.20 	5.46500000 	2.75900000 
356.80 	5.51800000 	2.74700000 
359.40 	5.59800000 	2.71600000 
362.00 	5.66500000 	2.68300000 
364.70 	5.76100000 	2.65500000 
367.40 	5.88000000 	2.60300000 
370.10 	6.00800000 	2.53000000 
372.90 	6.13800000 	2.41700000 
375.70 	6.26400000 	2.29100000 
378.60 	6.39300000 	2.07100000 
381.50 	6.46800000 	1.85500000 
384.40 	6.47400000 	1.60600000 
387.50 	6.43300000 	1.36700000 
390.50 	6.35700000 	1.15700000 
393.60 	6.26200000 	0.96600000 
396.70 	6.15300000 	0.82600000 
399.90 	6.02800000 	0.70300000 
403.20 	5.91600000 	0.60000000 
406.50 	5.80100000 	0.51600000 
409.90 	5.70000000 	0.44700000 
413.30 	5.60100000 	0.39900000 
416.80 	5.51300000 	0.35400000 
420.30 	5.43000000 	0.31500000 
423.90 	5.34200000 	0.28500000 
427.50 	5.26700000 	0.25600000 
431.20 	5.19600000 	0.23800000 
435.00 	5.13000000 	0.20700000 
438.90 	5.06000000 	0.19300000 
442.80 	5.00200000 	0.17700000 
446.80 	4.95000000 	0.14600000 
450.90 	4.89400000 	0.13900000 
455.00 	4.84300000 	0.12900000 
459.20 	4.79200000 	0.11700000 
463.50 	4.74500000 	0.10800000 
467.90 	4.69900000 	0.10400000 
472.30 	4.65600000 	0.09000000 
476.90 	4.61500000 	0.08600000 
481.50 	4.57700000 	0.07400000 
486.20 	4.53300000 	0.07100000 
491.00 	4.50100000 	0.06300000 
495.90 	4.46800000 	0.05600000 
500.90 	4.43400000 	0.05100000 
506.10 	4.40000000 	0.05000000 
511.30 	4.37000000 	0.04300000 
516.60 	4.34200000 	0.03600000 
522.00 	4.31200000 	0.03500000 
527.60 	4.28400000 	0.03100000 
533.30 	4.25800000 	0.03000000 
539.10 	4.23300000 	0.02600000 
545.00 	4.20800000 	0.02500000 
551.00 	4.18600000 	0.02100000 
557.20 	4.16400000 	0.02000000 
563.60 	4.14200000 	0.01800000 
570.00 	4.12100000 	0.01800000 
576.70 	4.10300000 	0.01300000 
583.50 	4.08200000 	0.01400000 
590.40 	4.06400000 	0.01200000 
597.50 	4.04800000 	0.01300000 
604.80 	4.02970000 	0.01100000 
612.30 	4.01300000 	0.01000000 
619.90 	3.99400000 	0.00800000 
627.80 	3.97900000 	0.00700000 
635.80 	3.96200000 	0.00700000 
644.10 	3.94700000 	0.00700000 
652.50 	3.93500000 	0.00800000 
661.20 	3.91700000 	0.00700000 
670.20 	3.90270000 	0.00600000 
679.40 	3.89180000 	0.00600000 
688.80 	3.87900000 	0.00600000 
698.50 	3.86700000 	0.00600000 
708.50 	3.85700000 	0.00500000 
718.70 	3.84800000 	0.00400000 
729.30 	3.83600000 	0.00200000 
740.20 	3.82400000 	0.00130000 
751.40 	3.81600000 	0.00100000 
763.00 	3.80500000 	0.00150000 
774.90 	3.79600000 	0.00200000 
787.20 	3.78800000 	0.00150000 
799.90 	3.77800000 	0.00150000 
813.00 	3.77000000 	0.00210000 
826.60 	3.75700000 	0.00200000 
