; From SOPRA S.A. http://www.sopra-sa.com/indices.htm
; Filename    Symbol               Range (nm)     Description
; SIOP        SiO                 190     1907    Silicon Monoxide
; lambda/nm       n         k
190.75	1.74600000	0.73480000
192.23	1.75432500	0.73300900
193.73	1.76263200	0.73101600
195.25	1.77092800	0.72882600
196.80	1.77921600	0.72644400
198.38	1.78750000	0.72387500
199.98	1.79578400	0.72112400
201.60	1.80407200	0.71819700
203.25	1.81236800	0.71509600
204.93	1.82067600	0.71182900
206.64	1.82900000	0.70840000
208.38	1.83734400	0.70481400
210.14	1.84571200	0.70107600
211.94	1.85410800	0.69719100
213.77	1.86253600	0.69316400
215.63	1.87100500	0.68900700
217.52	1.87955100	0.68478700
219.44	1.88813600	0.68042800
221.40	1.89674400	0.67590400
223.40	1.90536900	0.67120000
225.43	1.91399300	0.66629300
227.50	1.92256900	0.66111900
229.60	1.93114400	0.65572500
231.75	1.93973700	0.65012300
233.93	1.94835000	0.64431300
236.16	1.95702200	0.63831800
238.43	1.96585400	0.63221500
240.75	1.97472300	0.62590100
243.11	1.98355800	0.61931400
245.52	1.99233100	0.61242800
247.97	2.00097600	0.60516500
250.48	2.00939700	0.59740100
253.03	2.01767900	0.58928200
255.64	2.02587500	0.58090000
258.30	2.03402600	0.57233400
261.02	2.04220600	0.56370500
263.80	2.05031300	0.55489400
266.63	2.05826100	0.54580800
269.53	2.06597100	0.53636400
272.49	2.07334100	0.52644800
275.52	2.08043800	0.51616300
278.62	2.08732000	0.50560000
281.78	2.09400800	0.49482600
285.02	2.10053000	0.48392300
288.34	2.10687500	0.47283100
291.73	2.11302800	0.46149400
295.20	2.11902300	0.44990400
298.76	2.12489400	0.43804900
302.40	2.13056300	0.42590000
306.14	2.13594300	0.41343100
309.96	2.14101600	0.40056100
313.89	2.14575500	0.38721900
317.91	2.15006300	0.37350000
322.04	2.15384700	0.35951200
326.28	2.15692600	0.34530600
330.63	2.15913700	0.33094300
335.10	2.16062500	0.31645000
339.69	2.16154800	0.30185400
344.40	2.16209100	0.28721300
349.25	2.16241500	0.27257900
354.24	2.16231200	0.25795000
359.38	2.16155100	0.24332900
364.66	2.15992600	0.22863900
370.11	2.15724500	0.21382600
375.71	2.15362500	0.19908800
381.49	2.14921300	0.18463300
387.45	2.14394400	0.17063800
393.60	2.13778100	0.15727500
399.95	2.13093700	0.14455400
406.51	2.12362300	0.13246600
413.28	2.11605500	0.12115200
420.29	2.10844600	0.11073500
427.54	2.10075000	0.10109500
435.04	2.09292100	0.09211300
442.80	2.08500800	0.08372300
450.86	2.07705400	0.07585200
459.20	2.06906200	0.06851200
467.87	2.06104400	0.06171100
476.87	2.05297100	0.05544700
486.22	2.04480800	0.04971700
495.94	2.03668700	0.04447800
506.06	2.02871600	0.03969200
516.60	2.02105500	0.03533300
527.60	2.01389200	0.03137800
539.07	2.00706200	0.02778500
551.05	2.00045200	0.02451600
563.57	1.99396900	0.02152000
576.68	1.98748800	0.01873800
590.41	1.98112400	0.01618500
604.81	1.97494800	0.01386000
619.93	1.96902300	0.01174900
635.82	1.96345200	0.00983300
652.55	1.95812500	0.00811100
670.19	1.95298800	0.00657900
688.81	1.94798500	0.00523000
708.49	1.94302500	0.00406000
729.32	1.93818800	0.00305700
751.43	1.93351100	0.00221000
774.91	1.92898800	0.00151000
799.90	1.92456600	0.00094700
826.57	1.92037900	0.00051400
855.07	1.91650000	0.00020100
885.61	1.91301700	0.00000100
918.41	1.91011100	0.00000000
953.73	1.90759200	0.00000000
991.88	1.90540200	0.00000000
1033.21	1.90350200	0.00000000
1078.13	1.90185600	0.00000000
1127.14	1.90042400	0.00000000
1180.81	1.89916700	0.00000000
1239.85	1.89804600	0.00000000
1305.11	1.89702600	0.00000000
1377.61	1.89606500	0.00000000
1458.65	1.89512800	0.00000000
1549.81	1.89417300	0.00000000
1653.14	1.89316200	0.00000000
1771.22	1.89205900	0.00000000
1907.46	1.89082300	0.00000000
