; From SOPRA S.A. http://www.sopra-sa.com/indices.htm
; Filename    Symbol               Range (nm)     Description
; SION40      SiO0.6N0.4          250      800    Silicon Oxynitride (40% N)
; lambda/nm       n         k
250.00	1.72172800	0.00414200
255.00	1.71642300	0.00272000
260.00	1.71067300	0.00152100
265.00	1.70509000	0.00059700
270.00	1.70028800	0.00000000
275.00	1.69804300	0.00009500
280.00	1.69547700	0.00000000
285.00	1.68911700	0.00000000
290.00	1.68252900	0.00000000
295.00	1.67878300	0.00000000
300.00	1.67589300	0.00000000
305.00	1.67266100	0.00000000
310.00	1.66979800	0.00000000
315.00	1.66794000	0.00000000
320.00	1.66610900	0.00000000
325.00	1.66315100	0.00000000
330.00	1.66022500	0.00000000
335.00	1.65834300	0.00000000
340.00	1.65679000	0.00000000
345.00	1.65513700	0.00000000
350.00	1.65353900	0.00000000
355.00	1.65201300	0.00000000
360.00	1.65054000	0.00000000
365.00	1.64911600	0.00000000
370.00	1.64771800	0.00000000
375.00	1.64627800	0.00000000
380.00	1.64493200	0.00000000
385.00	1.64384700	0.00000000
390.00	1.64286200	0.00000000
395.00	1.64188900	0.00000000
400.00	1.64088500	0.00000000
405.00	1.63969100	0.00000000
410.00	1.63856800	0.00000000
415.00	1.63785900	0.00000000
420.00	1.63716400	0.00000000
425.00	1.63608800	0.00000000
430.00	1.63495800	0.00000000
435.00	1.63391100	0.00000000
440.00	1.63312900	0.00000000
445.00	1.63305000	0.00000000
450.00	1.63304200	0.00000000
455.00	1.63254000	0.00000000
460.00	1.63177900	0.00000000
465.00	1.63070400	0.00000000
470.00	1.62962700	0.00000000
475.00	1.62892300	0.00000000
480.00	1.62835400	0.00000000
485.00	1.62782600	0.00000000
490.00	1.62727700	0.00000000
495.00	1.62657300	0.00000000
500.00	1.62583000	0.00000000
505.00	1.62511300	0.00000000
510.00	1.62444900	0.00000000
515.00	1.62391100	0.00000000
520.00	1.62343300	0.00000000
525.00	1.62298700	0.00000000
530.00	1.62254000	0.00000000
535.00	1.62204700	0.00000000
540.00	1.62151900	0.00000000
545.00	1.62090200	0.00000000
550.00	1.62034100	0.00000000
555.00	1.61996700	0.00000000
560.00	1.61976400	0.00000000
565.00	1.61983400	0.00000000
570.00	1.61994800	0.00000000
575.00	1.61989900	0.00000000
580.00	1.61972800	0.00000000
585.00	1.61941200	0.00000000
590.00	1.61894200	0.00000000
595.00	1.61823400	0.00000000
600.00	1.61748600	0.00000000
605.00	1.61689500	0.00000000
610.00	1.61638600	0.00000000
615.00	1.61595900	0.00000000
620.00	1.61558400	0.00000000
625.00	1.61521500	0.00000000
630.00	1.61489800	0.00000000
635.00	1.61467400	0.00000000
640.00	1.61451000	0.00000000
645.00	1.61436700	0.00000000
650.00	1.61430200	0.00000000
655.00	1.61440800	0.00000000
660.00	1.61453700	0.00000000
665.00	1.61455900	0.00000000
670.00	1.61450500	0.00000000
675.00	1.61435600	0.00000000
680.00	1.61412900	0.00000000
685.00	1.61383700	0.00000000
690.00	1.61346900	0.00000000
695.00	1.61298800	0.00000000
700.00	1.61248300	0.00000000
705.00	1.61204500	0.00000000
710.00	1.61163900	0.00000000
715.00	1.61126200	0.00000000
720.00	1.61091400	0.00000000
725.00	1.61059100	0.00000000
730.00	1.61029600	0.00000000
735.00	1.61003500	0.00000000
740.00	1.60979500	0.00000000
745.00	1.60956100	0.00000000
750.00	1.60933800	0.00000000
755.00	1.60912500	0.00000000
760.00	1.60892300	0.00000000
765.00	1.60873200	0.00000000
770.00	1.60854700	0.00000000
775.00	1.60836300	0.00000000
780.00	1.60818500	0.00000000
785.00	1.60801600	0.00000000
790.00	1.60785700	0.00000000
795.00	1.60771200	0.00000000
800.00	1.60758300	0.00000000
