; From SOPRA S.A. http://www.sopra-sa.com/indices.htm
; Filename    Symbol               Range (nm)     Description
; STSG064     Si0.94Ge0.06        275      619    Silicon Germanium alloy (strained, 6% Ge)
; lambda/nm       n         k
275.52	2.50800000	4.95300000
277.06	2.66200000	5.02200000
278.62	2.81200000	5.09200000
280.19	2.99000000	5.15200000
281.78	3.16500000	5.21300000
283.39	3.36700000	5.23800000
285.02	3.56800000	5.26600000
286.67	3.82300000	5.22500000
288.34	4.07600000	5.19000000
290.02	4.28900000	5.03900000
291.73	4.50700000	4.89500000
293.46	4.62200000	4.72700000
295.20	4.74200000	4.56000000
296.97	4.79500000	4.38900000
298.76	4.85300000	4.21600000
300.57	4.87700000	4.08600000
302.40	4.90400000	3.95400000
304.26	4.90800000	3.85300000
306.14	4.91400000	3.75000000
308.04	4.92000000	3.66500000
309.96	4.92700000	3.57900000
311.91	4.92300000	3.51300000
313.89	4.92000000	3.44600000
315.89	4.92700000	3.39200000
317.91	4.93500000	3.33700000
319.96	4.94700000	3.28800000
322.04	4.96000000	3.23800000
324.14	4.97200000	3.19500000
326.28	4.98600000	3.15200000
328.44	4.99700000	3.11500000
330.63	5.00900000	3.07700000
332.85	5.03600000	3.04100000
335.10	5.06300000	3.00500000
337.37	5.08500000	2.98100000
339.69	5.10700000	2.95800000
342.03	5.13700000	2.93800000
344.40	5.16800000	2.91800000
346.81	5.20100000	2.90300000
349.25	5.23600000	2.88800000
351.73	5.29400000	2.88200000
354.24	5.35300000	2.87600000
356.79	5.43800000	2.87200000
359.38	5.52600000	2.86800000
362.00	5.67900000	2.84200000
364.66	5.83200000	2.81800000
367.36	6.01800000	2.71700000
370.11	6.20400000	2.61900000
372.89	6.37600000	2.38200000
375.71	6.55400000	2.15000000
378.58	6.56700000	1.83600000
381.49	6.59300000	1.51700000
384.45	6.47300000	1.26900000
387.45	6.35700000	1.00900000
390.50	6.20300000	0.87360000
393.60	6.04500000	0.72970000
396.75	5.91300000	0.64640000
399.95	5.77800000	0.55870000
403.20	5.67900000	0.51470000
406.51	5.57800000	0.46860000
409.87	5.49000000	0.43220000
413.28	5.40000000	0.39410000
416.76	5.32600000	0.35690000
420.29	5.24900000	0.31810000
423.88	5.17900000	0.28380000
427.54	5.10700000	0.24820000
431.25	5.02900000	0.23280000
435.04	4.95000000	0.21690000
438.89	4.89700000	0.21210000
442.80	4.84200000	0.20710000
446.79	4.79800000	0.19670000
450.86	4.75300000	0.18610000
454.99	4.71000000	0.17750000
459.20	4.66600000	0.16870000
463.50	4.62800000	0.16730000
467.87	4.59000000	0.16570000
472.32	4.55200000	0.15460000
476.87	4.51300000	0.14320000
481.50	4.48000000	0.13660000
486.22	4.44600000	0.12990000
491.03	4.41300000	0.12820000
495.94	4.38000000	0.12650000
500.95	4.35400000	0.12220000
506.06	4.32700000	0.11780000
511.28	4.30300000	0.11600000
516.60	4.27900000	0.11410000
522.04	4.26000000	0.11610000
527.60	4.24200000	0.11780000
533.27	4.22300000	0.09523000
539.07	4.20500000	0.07215000
544.99	4.17800000	0.06807000
551.05	4.15000000	0.06387000
557.24	4.12600000	0.06102000
563.57	4.10100000	0.05809000
570.05	4.07900000	0.05720000
576.68	4.05600000	0.05629000
583.46	4.03600000	0.05506000
590.41	4.01600000	0.05378000
597.52	3.99800000	0.05231000
604.81	3.97900000	0.05078000
612.27	3.96200000	0.04926000
619.93	3.94400000	0.04768000
