; From SOPRA S.A. http://www.sopra-sa.com/indices.htm
; Filename    Symbol               Range (nm)     Description
; TASI2-A     TaSi2               123    24797    Tantalum Silicide (perpendicular to c axis)
; lambda/nm       n         k
123.99	0.38300000	0.92000000
124.61	0.38831300	0.92781300
125.24	0.38800000	0.93600000
125.87	0.38443800	0.94493700
126.52	0.38000000	0.95500000
127.16	0.37812500	0.96737500
127.82	0.37800000	0.98000000
128.48	0.38081300	0.99100000
129.15	0.38400000	1.00100000
129.83	0.38500000	1.00956200
130.51	0.38500000	1.01800000
131.20	0.38406300	1.02781200
131.90	0.38300000	1.03800000
132.60	0.38306300	1.04768700
133.32	0.38300000	1.05800000
134.04	0.38100000	1.07056200
134.77	0.38000000	1.08300000
135.50	0.38406300	1.09275000
136.25	0.38800000	1.10200000
137.00	0.38650000	1.11206300
137.76	0.38400000	1.12300000
138.53	0.38350000	1.13562500
139.31	0.38400000	1.14900000
140.10	0.38562500	1.16287500
140.89	0.38800000	1.17600000
141.70	0.39137500	1.18625000
142.51	0.39400000	1.19600000
143.34	0.39343800	1.20681300
144.17	0.39200000	1.21900000
145.01	0.39087500	1.23418700
145.86	0.39100000	1.25000000
146.73	0.39468800	1.26425000
147.60	0.39900000	1.27800000
148.49	0.40118800	1.29150000
149.38	0.40300000	1.30500000
150.29	0.40550000	1.31862500
151.20	0.40800000	1.33300000
152.13	0.40956300	1.34906300
153.07	0.41200000	1.36600000
154.02	0.41781300	1.38400000
154.98	0.42400000	1.40100000
155.96	0.42787500	1.41368700
156.94	0.43100000	1.42600000
157.94	0.43375000	1.44137500
158.96	0.43700000	1.45800000
159.98	0.44181300	1.47531300
161.02	0.44800000	1.49300000
162.07	0.45637500	1.51087500
163.14	0.46500000	1.52800000
164.22	0.47175000	1.54262500
165.31	0.47800000	1.55700000
166.42	0.48437500	1.57337500
167.55	0.49100000	1.59000000
168.69	0.49856300	1.60556300
169.84	0.50600000	1.62100000
171.01	0.51206300	1.63662500
172.20	0.51800000	1.65300000
173.41	0.52518700	1.67106200
174.63	0.53200000	1.69000000
175.87	0.53575000	1.70900000
177.12	0.54100000	1.72900000
178.40	0.55287500	1.75168800
179.69	0.56700000	1.77400000
181.00	0.58031300	1.79243800
182.33	0.59400000	1.81000000
183.68	0.60856300	1.82906300
185.05	0.62300000	1.84800000
186.44	0.63618700	1.86581200
187.86	0.64900000	1.88300000
189.29	0.66187500	1.89943700
190.75	0.67500000	1.91600000
192.23	0.68893800	1.93343800
193.73	0.70300000	1.95200000
195.25	0.71600000	1.97287500
196.80	0.73000000	1.99400000
198.38	0.74768800	2.01325000
199.98	0.76600000	2.03200000
201.60	0.78162500	2.05143700
203.25	0.79800000	2.07000000
204.93	0.81868700	2.08531200
206.64	0.84000000	2.10100000
208.38	0.85837500	2.12100000
210.14	0.87700000	2.14200000
211.94	0.89893800	2.16187500
213.77	0.92100000	2.18100000
215.63	0.93893800	2.19862500
217.52	0.95900000	2.21600000
219.44	0.98881200	2.23500000
221.40	1.02000000	2.25300000
223.40	1.04500000	2.26681200
225.43	1.06900000	2.28000000
227.50	1.09518800	2.29600000
229.60	1.12200000	2.31200000
231.75	1.14868800	2.32612500
233.93	1.17600000	2.33900000
236.16	1.20487500	2.35062500
238.43	1.23400000	2.36100000
240.75	1.26243700	2.37050000
243.11	1.29000000	2.37800000
245.52	1.31537500	2.38150000
247.97	1.34100000	2.38400000
250.48	1.37043800	2.38818700
253.03	1.39900000	2.39300000
255.64	1.42162500	2.39893700
258.30	1.44300000	2.40400000
261.02	1.46850000	2.40487500
263.80	1.49100000	2.40600000
266.63	1.50093700	2.41075000
269.53	1.51100000	2.41900000
272.49	1.53400000	2.43350000
275.52	1.56000000	2.44900000
278.62	1.58187500	2.46018700
281.78	1.60400000	2.47000000
285.02	1.62981300	2.47956300
288.34	1.65500000	2.48900000
291.73	1.67518800	2.49862500
295.20	1.69400000	2.50900000
298.76	1.71406200	2.51962500
302.40	1.73400000	2.53400000
306.14	1.75162500	2.55706200
309.96	1.77200000	2.58400000
313.89	1.79975000	2.61218800
317.91	1.83400000	2.64000000
322.04	1.87606300	2.66550000
326.28	1.92400000	2.68700000
330.63	1.97862500	2.70112500
335.10	2.03300000	2.71100000
339.69	2.07731200	2.71956200
344.40	2.12100000	2.72400000
349.25	2.17318700	2.72125000
354.24	2.22500000	2.71500000
359.38	2.27037500	2.70856300
364.66	2.31000000	2.70000000
370.11	2.34037500	2.68656300
375.71	2.36800000	2.67400000
381.49	2.39943700	2.66850000
387.45	2.43100000	2.66600000
393.60	2.46181200	2.66431200
399.95	2.49000000	2.66400000
406.51	2.51118800	2.66412500
413.28	2.53200000	2.66700000
420.29	2.55843800	2.67506300
427.54	2.58800000	2.68700000
435.04	2.62037500	2.70350000
442.80	2.65500000	2.72100000
450.86	2.68975000	2.73387500
459.20	2.72900000	2.74900000
467.87	2.77718700	2.77456200
476.87	2.83200000	2.80100000
486.22	2.89231300	2.82093800
495.94	2.95900000	2.83600000
506.06	3.03318800	2.84537500
516.60	3.11300000	2.84900000
527.60	3.19718800	2.84862500
539.07	3.28500000	2.83800000
551.05	3.37812500	2.81012500
563.57	3.46800000	2.76900000
576.68	3.54593700	2.71437500
590.41	3.61400000	2.65200000
604.81	3.67125000	2.58800000
619.93	3.71800000	2.52100000
635.82	3.75443700	2.45037500
652.55	3.78000000	2.38000000
670.19	3.79325000	2.31300000
688.81	3.79700000	2.25100000
708.49	3.79012500	2.19718700
729.32	3.78300000	2.15000000
751.43	3.79712500	2.10643700
774.91	3.79800000	2.07400000
799.90	3.73525000	2.05906200
826.57	3.67800000	2.06200000
855.07	3.69856200	2.10062500
885.61	3.73700000	2.12900000
918.41	3.75312500	2.09181300
953.73	3.76000000	2.03500000
991.88	3.76137500	1.98956300
1033.21	3.74500000	1.94500000
1078.13	3.70275000	1.89975000
1127.14	3.62600000	1.85800000
1180.81	3.50200000	1.80993700
1239.85	3.33500000	1.79600000
1305.11	3.11056300	1.84975000
1377.61	2.87200000	1.98200000
1458.65	2.65343800	2.22431200
1549.81	2.46800000	2.54800000
1653.14	2.34062500	2.93868800
1771.22	2.27000000	3.38500000
1907.46	2.26281200	3.86612500
2066.42	2.32000000	4.39600000
2254.28	2.44206200	4.97837500
2479.70	2.63700000	5.62300000
