; From SOPRA S.A. http://www.sopra-sa.com/indices.htm
; Filename    Symbol               Range (nm)     Description
; TASI2-B     TaSi2               123    24797    Tantalum Silicide (parallel to c axis)
; lambda/nm       n         k
123.99	0.44100000	0.88000000
124.61	0.44081300	0.88625000
125.24	0.44000000	0.89100000
125.87	0.43818800	0.89525000
126.52	0.43500000	0.90000000
127.16	0.42906300	0.90706300
127.82	0.42300000	0.91500000
128.48	0.41981300	0.92293800
129.15	0.41700000	0.93100000
129.83	0.41287500	0.93868800
130.51	0.40800000	0.94700000
131.20	0.40187500	0.95731300
131.90	0.39600000	0.96800000
132.60	0.39275000	0.97718700
133.32	0.38900000	0.98700000
134.04	0.38100000	0.99925000
134.77	0.37300000	1.01300000
135.50	0.36875000	1.02825000
136.25	0.36600000	1.04400000
137.00	0.36400000	1.05881200
137.76	0.36200000	1.07400000
138.53	0.35818800	1.09050000
139.31	0.35500000	1.10800000
140.10	0.35468800	1.12712500
140.89	0.35600000	1.14600000
141.70	0.35900000	1.16225000
142.51	0.36200000	1.17800000
143.34	0.36262500	1.19462500
144.17	0.36300000	1.21200000
145.01	0.36437500	1.23093700
145.86	0.36700000	1.25000000
146.73	0.37231300	1.26768700
147.60	0.37800000	1.28500000
148.49	0.38156200	1.30225000
149.38	0.38500000	1.32000000
150.29	0.38937500	1.33937500
151.20	0.39500000	1.35900000
152.13	0.40293800	1.37731300
153.07	0.41200000	1.39600000
154.02	0.42162500	1.41743800
154.98	0.43100000	1.43800000
155.96	0.43831300	1.45337500
156.94	0.44600000	1.46800000
157.94	0.45650000	1.48581300
158.96	0.46800000	1.50400000
159.98	0.47931300	1.52081300
161.02	0.49100000	1.53700000
162.07	0.50343700	1.55256200
163.14	0.51600000	1.56800000
164.22	0.52787500	1.58425000
165.31	0.54000000	1.60000000
166.42	0.55337500	1.61356300
167.55	0.56700000	1.62700000
168.69	0.57981300	1.64237500
169.84	0.59300000	1.65800000
171.01	0.60768800	1.67312500
172.20	0.62300000	1.68700000
173.41	0.63850000	1.69762500
174.63	0.65400000	1.70800000
175.87	0.66887500	1.72175000
177.12	0.68400000	1.73500000
178.40	0.70075000	1.74425000
179.69	0.71700000	1.75200000
181.00	0.73050000	1.75943700
182.33	0.74300000	1.76700000
183.68	0.75581300	1.77593800
185.05	0.76800000	1.78500000
186.44	0.77881200	1.79306200
187.86	0.78900000	1.80100000
189.29	0.79931300	1.80912500
190.75	0.80900000	1.81800000
192.23	0.81743800	1.82837500
193.73	0.82500000	1.84000000
195.25	0.83131300	1.85287500
196.80	0.83800000	1.86700000
198.38	0.84718800	1.88237500
199.98	0.85700000	1.89900000
201.60	0.86525000	1.92056200
203.25	0.87500000	1.93600000
204.93	0.88943700	1.92343800
206.64	0.90600000	1.91900000
208.38	0.92281300	1.96675000
210.14	0.94100000	2.02100000
211.94	0.96118800	2.04287500
213.77	0.98300000	2.05600000
215.63	1.00656300	2.07268800
217.52	1.03100000	2.08800000
219.44	1.05593700	2.10050000
221.40	1.08000000	2.11200000
223.40	1.10081200	2.12406200
225.43	1.12100000	2.13600000
227.50	1.14256300	2.14718700
229.60	1.16500000	2.15900000
231.75	1.19193800	2.17412500
233.93	1.21300000	2.18800000
236.16	1.20750000	2.19518800
238.43	1.21000000	2.20100000
240.75	1.26306200	2.21062500
243.11	1.32200000	2.21900000
245.52	1.34837500	2.22131300
247.97	1.36600000	2.22200000
250.48	1.38793800	2.22412500
253.03	1.40800000	2.22700000
255.64	1.42325000	2.23043800
258.30	1.43700000	2.23600000
261.02	1.45200000	2.24537500
263.80	1.46700000	2.25800000
266.63	1.48012500	2.27381200
269.53	1.49600000	2.29300000
272.49	1.51918700	2.31775000
275.52	1.54800000	2.34200000
278.62	1.58250000	2.35943700
281.78	1.62200000	2.37300000
285.02	1.66737500	2.38475000
288.34	1.71400000	2.39100000
291.73	1.75750000	2.38843800
295.20	1.79800000	2.37800000
298.76	1.83612500	2.35656300
302.40	1.86600000	2.33300000
306.14	1.87843800	2.31568700
309.96	1.88400000	2.30300000
313.89	1.89106200	2.29625000
317.91	1.89700000	2.29500000
322.04	1.90075000	2.29950000
326.28	1.90600000	2.30900000
330.63	1.91668700	2.32387500
335.10	1.93100000	2.34100000
339.69	1.94806200	2.35662500
344.40	1.96900000	2.37300000
349.25	1.99537500	2.39312500
354.24	2.02500000	2.41100000
359.38	2.05737500	2.41975000
364.66	2.08900000	2.42500000
370.11	2.11487500	2.42981200
375.71	2.13900000	2.43500000
381.49	2.16387500	2.44287500
387.45	2.18900000	2.45200000
393.60	2.21525000	2.46162500
399.95	2.24100000	2.47200000
406.51	2.26393700	2.48293800
413.28	2.28700000	2.49500000
420.29	2.31275000	2.50787500
427.54	2.34000000	2.52400000
435.04	2.36693700	2.54731200
442.80	2.39800000	2.57300000
450.86	2.43837500	2.59787500
459.20	2.48400000	2.62100000
467.87	2.53200000	2.63981200
476.87	2.58400000	2.65600000
486.22	2.64131300	2.67100000
495.94	2.70200000	2.68300000
506.06	2.76356300	2.69200000
516.60	2.82900000	2.69400000
527.60	2.90406300	2.68500000
539.07	2.97800000	2.66500000
551.05	3.04206200	2.63100000
563.57	3.09600000	2.58800000
576.68	3.13731200	2.53787500
590.41	3.16400000	2.48700000
604.81	3.17137500	2.44056200
619.93	3.16500000	2.40400000
635.82	3.14662500	2.38431300
652.55	3.12300000	2.38200000
670.19	3.09962500	2.39987500
688.81	3.08200000	2.43800000
708.49	3.07387500	2.49975000
729.32	3.08600000	2.57800000
751.43	3.12900000	2.67031300
774.91	3.20700000	2.76600000
799.90	3.32725000	2.86668800
826.57	3.49100000	2.93300000
855.07	3.72937500	2.92800000
885.61	3.96000000	2.84600000
918.41	4.10781200	2.64131300
953.73	4.18200000	2.39700000
991.88	4.15893700	2.17950000
1033.21	4.06200000	1.99300000
1078.13	3.89618700	1.86675000
1127.14	3.69300000	1.79200000
1180.81	3.49293700	1.76637500
1239.85	3.27400000	1.80000000
1305.11	3.01306200	1.89756200
1377.61	2.75400000	2.07300000
1458.65	2.53150000	2.35075000
1549.81	2.35000000	2.70400000
1653.14	2.22231200	3.11531300
1771.22	2.15800000	3.58100000
1907.46	2.17743800	4.09150000
2066.42	2.26100000	4.64700000
2254.28	2.38812500	5.23418700
2479.70	2.58200000	5.88400000
