; Refractive index spectrum for Ti by Rakic
;
; A. D. Rakić, A. B. Djurišic, J. M. Elazar, and M. L. Majewski. Optical properties of metallic films for vertical-cavity optoelectronic devices, <a href="http://dx.doi.org/10.1364/AO.37.005271"><i>Appl. Opt.</i> <b>37</b>, 5271-5283 (1998)</a>
;
; Fit of the experimental data from several sources to Brendel-Bormann (BB) model
;
; lambda/nm    n     k
206.60 	0.14870893 	1.00019623 
210.90 	0.15197084 	1.04375209 
215.28 	0.15555884 	1.08759246 
219.75 	0.15946573 	1.13180357 
224.32 	0.16368796 	1.17647038 
228.99 	0.16822520 	1.22167864 
233.75 	0.17308014 	1.26751693 
238.61 	0.17825867 	1.31407916 
243.57 	0.18377069 	1.36146737 
248.63 	0.18963175 	1.40979525 
253.80 	0.19586621 	1.45919203 
259.08 	0.20251247 	1.50980665 
264.46 	0.20963101 	1.56181139 
269.96 	0.21731581 	1.61540356 
275.57 	0.22570911 	1.67080359 
281.30 	0.23501849 	1.72824716 
287.15 	0.24553415 	1.78796948 
293.12 	0.25764270 	1.85018046 
299.21 	0.27183317 	1.91503154 
305.43 	0.28869085 	1.98257691 
311.78 	0.30887589 	2.05273433 
318.27 	0.33308631 	2.12525211 
324.88 	0.36200798 	2.19968877 
331.64 	0.39625722 	2.27541028 
338.53 	0.43632316 	2.35160706 
345.57 	0.48251725 	2.42732935 
352.75 	0.53493595 	2.50153713 
360.09 	0.59344025 	2.57315887 
367.57 	0.65765323 	2.64115284 
375.21 	0.72697478 	2.70456533 
383.01 	0.80061063 	2.76258125 
390.98 	0.87761231 	2.81456385 
399.10 	0.95692407 	2.86008207 
407.40 	1.03743293 	2.89892483 
415.87 	1.11801856 	2.93110292 
424.52 	1.19760001 	2.95683974 
433.34 	1.27517731 	2.97655260 
442.35 	1.34986623 	2.99082662 
451.55 	1.42092540 	3.00038317 
460.93 	1.48777528 	3.00604504 
470.52 	1.55000912 	3.00870007 
480.30 	1.60739605 	3.00926479 
490.28 	1.65987711 	3.00864982 
500.48 	1.70755473 	3.00772786 
510.88 	1.75067675 	3.00730559 
521.50 	1.78961577 	3.00810019 
532.34 	1.82484512 	3.01072117 
543.41 	1.85691247 	3.01565797 
554.71 	1.88641253 	3.02327363 
566.24 	1.91396006 	3.03380435 
578.01 	1.94016453 	3.04736476 
590.03 	1.96560774 	3.06395800 
602.30 	1.99082520 	3.08348981 
614.82 	2.01629201 	3.10578529 
627.60 	2.04241358 	3.13060706 
640.65 	2.06952090 	3.15767365 
653.96 	2.09787005 	3.18667681 
667.56 	2.12764520 	3.21729710 
681.44 	2.15896426 	3.24921710 
695.60 	2.19188628 	3.28213190 
710.07 	2.22641991 	3.31575699 
724.83 	2.26253211 	3.34983370 
739.90 	2.30015661 	3.38413237 
755.28 	2.33920183 	3.41845376 
770.98 	2.37955789 	3.45262905 
787.01 	2.42110273 	3.48651879 
803.37 	2.46370721 	3.52001105 
820.07 	2.50723921 	3.55301918 
837.12 	2.55156702 	3.58547929 
854.52 	2.59656177 	3.61734763 
872.29 	2.64209935 	3.64859808 
890.42 	2.68806168 	3.67921965 
908.93 	2.73433755 	3.70921424 
927.83 	2.78082316 	3.73859457 
947.12 	2.82742226 	3.76738234 
966.81 	2.87404615 	3.79560658 
986.91 	2.92061350 	3.82330224 
1007.43 	2.96705004 	3.85050895 
1028.37 	3.01328817 	3.87727000 
1049.75 	3.05926653 	3.90363143 
1071.57 	3.10492952 	3.92964131 
1093.85 	3.15022684 	3.95534915 
1116.59 	3.19511299 	3.98080538 
1139.80 	3.23954681 	4.00606101 
1163.50 	3.28349105 	4.03116726 
1187.69 	3.32691189 	4.05617540 
1212.38 	3.36977860 	4.08113655 
1237.58 	3.41206314 	4.10610158 
1263.31 	3.45373982 	4.13112104 
1289.57 	3.49478497 	4.15624513 
1316.38 	3.53517669 	4.18152374 
1343.75 	3.57489456 	4.20700645 
1371.69 	3.61391944 	4.23274263 
1400.20 	3.65223323 	4.25878147 
1429.31 	3.68981875 	4.28517210 
1459.03 	3.72665955 	4.31196371 
1489.36 	3.76273976 	4.33920563 
1520.32 	3.79804407 	4.36694750 
1551.93 	3.83255753 	4.39523936 
1584.19 	3.86626560 	4.42413181 
1617.13 	3.89915404 	4.45367614 
1650.75 	3.93120887 	4.48392447 
1685.06 	3.96241645 	4.51492990 
1720.10 	3.99276338 	4.54674662 
1755.85 	4.02223663 	4.57943008 
1792.36 	4.05082353 	4.61303711 
1829.62 	4.07851182 	4.64762606 
1867.66 	4.10528979 	4.68325693 
1906.48 	4.13114632 	4.71999144 
1946.12 	4.15607100 	4.75789324 
1986.58 	4.18005427 	4.79702792 
2027.88 	4.20308755 	4.83746316 
