;UO 
;UO TiO2.ASC: Values of n and k for tetragonal titanium dioxide
;UO from various references in HOCI (pg. 799). References are 2,
;UO 4, 5, 6, 7, 12. 
;UO 
;UO From HANDBOOK OF OPTICAL CONSTANTS IN SOLIDS edited by Edward D.
;UO Palik. Copyright (c) 1985 by Academic Press, Inc. Reproduced by
;UO permission of the publisher.
;UO --------------------------------------------------------------
;UO        nm        n        k
;UO --------------------------------------------------------------
;N  7
;L    Wavelength[nm]        n        k
103.00	0.63000000	0.83000000
108.00	0.60000000	0.87000000
113.00	0.58000000	0.89000000
118.00	0.60000000	0.89000000
124.00	0.57000000	0.83000000
131.00	0.52000000	0.79000000
140.00	0.54000000	0.82000000
146.00	0.68000000	1.00000000
155.00	0.91000000	1.30000000
159.00	0.95000000	1.32000000
170.00	1.04000000	1.51000000
178.00	1.31000000	1.54000000
194.00	1.55000000	1.46000000
210.00	1.46000000	1.46000000
232.00	1.45000000	2.31000000
266.00	1.97000000	2.44000000
272.00	2.59000000	2.49000000
273.00	2.92000000	2.50000000
288.00	3.56000000	2.83000000
294.00	4.23000000	3.02000000
318.00	5.38000000	4.00000000
324.00	1.44000000	1.44000000
344.00	4.36000000	4.30000000
388.00	3.49000000	2.88000000
400.00	3.40000000	3.00000000
420.00	3.29000000	2.91000000
440.00	3.20000000	2.84000000
441.00	0.08000000	0.04000000
460.00	3.13000000	2.79000000
480.00	3.08000000	2.75000000
500.00	3.03000000	2.71000000
520.00	3.00000000	2.68000000
540.00	2.97000000	2.66000000
560.00	2.94000000	2.64000000
580.00	2.92000000	2.62000000
600.00	2.90000000	2.60000000
620.00	2.88000000	2.59000000
640.00	2.87000000	2.58000000
660.00	2.85000000	2.57000000
680.00	2.84000000	2.56000000
700.00	2.83000000	2.55000000
720.00	2.82000000	2.54000000
740.00	2.81000000	2.54000000
760.00	2.81000000	2.53000000
780.00	2.80000000	2.52000000
800.00	2.79000000	2.52000000
820.00	2.79000000	2.52000000
840.00	2.78000000	2.51000000
860.00	2.78000000	2.51000000
880.00	2.77000000	2.50000000
900.00	2.77000000	2.50000000
920.00	2.76000000	2.50000000
940.00	2.76000000	2.49000000
960.00	2.76000000	2.49000000
980.00	2.75000000	2.49000000
1000.00	2.75000000	2.49000000
1020.00	2.75000000	2.48000000
1040.00	2.74000000	2.48000000
1060.00	2.74000000	2.48000000
1080.00	2.74000000	2.48000000
1100.00	2.74000000	2.48000000
1120.00	2.74000000	2.47000000
1140.00	2.73000000	2.47000000
1160.00	2.73000000	2.47000000
1180.00	2.73000000	2.47000000
1200.00	2.73000000	2.47000000
1220.00	2.73000000	2.47000000
1240.00	2.72000000	2.47000000
1260.00	2.72000000	2.46000000
1280.00	2.72000000	2.46000000
1300.00	2.72000000	2.46000000
1320.00	2.72000000	2.46000000
1340.00	2.72000000	2.46000000
1360.00	2.72000000	2.46000000
1380.00	2.72000000	2.46000000
1400.00	2.72000000	2.46000000
1420.00	2.71000000	2.46000000
1440.00	2.71000000	2.46000000
1460.00	2.71000000	2.46000000
1480.00	2.71000000	2.46000000
1500.00	2.71000000	2.45000000
2420.00	2.59000000	2.40000000
