;  Optical constants for tetragonal TiO2, extraordinary ray
; 
;   taken from:
;
;   'Handbook of Optical Constants of Solids', Ed. by Edward D. Palik,
;   Academic Press, Inc., 1985.
;   
;    Lambda (nm)            n            k
;-----------------------------------------
103.32	0.83000000	0.80000000
107.81	0.87000000	0.88000000
112.71	0.89000000	0.90000000
118.08	0.89000000	0.91000000
123.98	0.83000000	0.98000000
130.51	0.79000000	1.11000000
137.76	0.82000000	1.38000000
145.86	1.00000000	1.60000000
154.97	1.30000000	1.60000000
158.99	1.32000000	1.57000000
170.00	1.51000000	1.50000000
178.00	1.54000000	1.38000000
193.99	1.46000000	1.65000000
204.99	1.98000000	1.10000000
209.99	1.46000000	1.68000000
209.99	2.02000000	1.20000000
221.00	2.26000000	1.35000000
232.00	2.31000000	2.29000000
238.97	2.36000000	1.19000000
255.00	2.37000000	1.29000000
265.99	2.44000000	1.67000000
272.01	2.49000000	1.65000000
273.02	2.50000000	1.65000000
276.00	2.59000000	1.41000000
287.99	2.83000000	1.82000000
294.00	3.02000000	1.97000000
297.03	3.00000000	1.68000000
307.03	3.42000000	1.61000000
317.98	4.00000000	1.79000000
327.04	3.87000000	0.81000000
344.01	4.30000000	0.00000000
358.01	3.38000000	0.11700000
388.04	2.88000000	0.00000000
399.94	3.00000000	0.00000000
402.01	3.00000000	0.00800000
419.99	2.91000000	0.00000000
439.96	2.84000000	0.00000000
460.04	2.79000000	0.00000000
479.99	2.75000000	0.00000000
499.92	2.71000000	0.00000000
520.05	2.68000000	0.00000000
539.98	2.66000000	0.00000000
559.98	2.64000000	0.00000000
579.89	2.62000000	0.00000000
600.10	2.60000000	0.00000000
619.90	2.59000000	0.00000000
640.06	2.58000000	0.00000000
659.82	2.57000000	0.00000000
680.09	2.56000000	0.00000000
700.06	2.55000000	0.00000000
719.98	2.54000000	0.00000000
740.18	2.54000000	0.00000000
760.15	2.53000000	0.00000000
779.75	2.52000000	0.00000000
799.87	2.52000000	0.00000000
819.97	2.52000000	0.00000000
839.97	2.51000000	0.00000000
859.78	2.51000000	0.00000000
879.91	2.50000000	0.00000000
899.71	2.50000000	0.00000000
919.73	2.50000000	0.00000000
939.95	2.49000000	0.00000000
960.34	2.49000000	0.00000000
980.08	2.49000000	0.00000000
999.84	2.49000000	0.00000000
1019.57	2.48000000	0.00000000
1040.10	2.48000000	0.00000000
1059.66	2.48000000	0.00000000
1079.97	2.48000000	0.00000000
1100.09	2.48000000	0.00000000
1119.96	2.47000000	0.00000000
1139.52	2.47000000	0.00000000
1159.78	2.47000000	0.00000000
1179.64	2.47000000	0.00000000
1200.19	2.47000000	0.00000000
1220.28	2.47000000	0.00000000
1239.92	2.47000000	0.00000000
1259.96	2.46000000	0.00000000
1279.99	2.46000000	0.00000000
1299.99	2.46000000	0.00000000
1319.92	2.46000000	0.00000000
1340.03	2.46000000	0.00000000
1360.03	2.46000000	0.00000000
1380.01	2.46000000	0.00000000
1399.95	2.46000000	0.00000000
1420.00	2.46000000	0.00000000
1439.95	2.46000000	0.00000000
1459.96	2.46000000	0.00000000
1480.00	2.46000000	0.00000000
1500.06	2.45000000	0.00000000
2420.07	2.40000000	0.00000000
