;  Optical constants for tetragonal TiO2, ordinary ray
; 
;   taken from:
;
;   'Handbook of Optical Constants of Solids', Ed. by Edward D. Palik,
;   Academic Press, Inc., 1985.
;   
;    Lambda (nm)            n            k
;-----------------------------------------
103.32	0.63000000	0.77000000
107.81	0.60000000	0.81000000
112.71	0.58000000	0.91000000
118.08	0.60000000	1.01000000
123.98	0.57000000	1.07000000
130.51	0.52000000	1.21000000
137.76	0.54000000	1.42000000
145.86	0.68000000	1.64000000
154.97	0.91000000	1.81000000
158.99	0.95000000	1.77000000
170.00	1.04000000	1.94000000
178.00	1.31000000	2.03000000
193.99	1.55000000	1.77000000
209.99	1.46000000	1.65000000
217.01	1.82000000	0.97100000
227.99	1.81000000	1.17000000
232.00	1.45000000	2.15000000
250.97	2.01000000	1.71000000
265.99	1.97000000	3.36000000
269.99	2.53000000	2.09000000
272.01	2.59000000	3.47000000
273.02	2.92000000	3.49000000
285.01	3.03000000	2.21000000
287.99	3.56000000	3.55000000
294.00	4.23000000	3.48000000
305.97	3.84000000	1.95000000
317.98	5.38000000	2.18000000
334.99	4.22000000	0.78800000
344.01	4.36000000	0.00000000
359.99	3.87000000	0.25100000
388.04	3.49000000	0.00000000
399.94	3.40000000	0.00000000
412.03	3.24000000	0.02200000
419.99	3.29000000	0.00000000
439.96	3.20000000	0.00000000
460.04	3.13000000	0.00000000
479.99	3.08000000	0.00000000
499.92	3.03000000	0.00000000
520.05	3.00000000	0.00000000
539.04	2.95000000	0.00000000
539.98	2.97000000	0.00000000
559.98	2.94000000	0.00000000
579.89	2.92000000	0.00000000
600.10	2.90000000	0.00000000
619.90	2.88000000	0.00000000
640.06	2.87000000	0.00000000
659.82	2.85000000	0.00000000
680.09	2.84000000	0.00000000
700.06	2.83000000	0.00000000
719.98	2.82000000	0.00000000
740.18	2.81000000	0.00000000
760.15	2.81000000	0.00000000
779.75	2.80000000	0.00000000
799.87	2.79000000	0.00000000
819.97	2.79000000	0.00000000
839.97	2.78000000	0.00000000
859.78	2.78000000	0.00000000
879.91	2.77000000	0.00000000
899.71	2.77000000	0.00000000
919.73	2.76000000	0.00000000
939.95	2.76000000	0.00000000
960.34	2.76000000	0.00000000
980.08	2.75000000	0.00000000
999.84	2.75000000	0.00000000
1019.57	2.75000000	0.00000000
1040.10	2.74000000	0.00000000
1059.66	2.74000000	0.00000000
1079.97	2.74000000	0.00000000
1100.09	2.74000000	0.00000000
1119.96	2.74000000	0.00000000
1139.52	2.73000000	0.00000000
1159.78	2.73000000	0.00000000
1179.64	2.73000000	0.00000000
1200.19	2.73000000	0.00000000
1220.28	2.73000000	0.00000000
1239.92	2.72000000	0.00000000
1259.96	2.72000000	0.00000000
1279.99	2.72000000	0.00000000
1299.99	2.72000000	0.00000000
1319.92	2.72000000	0.00000000
1340.03	2.72000000	0.00000000
1360.03	2.72000000	0.00000000
1380.01	2.72000000	0.00000000
1399.95	2.72000000	0.00000000
1420.00	2.71000000	0.00000000
1439.95	2.71000000	0.00000000
1459.96	2.71000000	0.00000000
1480.00	2.71000000	0.00000000
1500.06	2.71000000	0.00000000
2420.07	2.59000000	0.00000000
