; From SOPRA S.A. http://www.sopra-sa.com/indices.htm
; Filename    Symbol               Range (nm)     Description
; TISI-A      TiSi2                63    12398    Titanium Silicide
; lambda/nm       n         k
100.80	0.53600000	0.65800000
101.63	0.53900000	0.66300000
102.47	0.54000000	0.66600000
103.32	0.54000000	0.66900000
104.19	0.53900000	0.67300000
105.07	0.53800000	0.67600000
105.97	0.53400000	0.67900000
106.88	0.52700000	0.68400000
107.81	0.51000000	0.69300000
108.76	0.51600000	0.70300000
109.72	0.51000000	0.71200000
110.70	0.50100000	0.72400000
111.70	0.49600000	0.73900000
112.71	0.49200000	0.75600000
113.75	0.49100000	0.17200000
114.80	0.49100000	0.78900000
115.87	0.49400000	0.80500000
116.97	0.49800000	0.81200000
118.08	0.50600000	0.83400000
119.22	0.51100000	0.84300000
120.37	0.51600000	0.85100000
121.55	0.52000000	0.85400000
122.76	0.51600000	0.85900000
123.99	0.51300000	0.86500000
125.24	0.50600000	0.86900000
126.52	0.49300000	0.81900000
127.82	0.48300000	0.89300000
129.15	0.41200000	0.91000000
130.51	0.46200000	0.92900000
131.90	0.45400000	0.95000000
133.32	0.44600000	0.91200000
134.77	0.44000000	0.99500000
136.25	0.43400000	1.02100000
137.76	0.42900000	1.04100000
139.31	0.42400000	1.01600000
140.89	0.42400000	1.10600000
142.51	0.42500000	1.13500000
144.17	0.42600000	1.16400000
145.86	0.42100000	1.19500000
147.60	0.43100000	1.22800000
149.38	0.43700000	1.26000000
151.20	0.44400000	1.19100000
153.07	0.45100000	1.31400000
154.98	0.46200000	1.36200000
156.94	0.47000000	1.38800000
158.96	0.48000000	1.42100000
161.02	0.49100000	1.45600000
163.14	0.50300000	1.49000000
165.31	0.52000000	1.51700000
167.55	0.53700000	1.56000000
169.84	0.55400000	1.59500000
172.20	0.57300000	1.62600000
174.63	0.59200000	1.66200000
177.12	0.60900000	1.69500000
179.69	0.62900000	1.73100000
182.33	0.65000000	1.77100000
185.05	0.67300000	1.81000000
187.86	0.69900000	1.85300000
190.75	0.73000000	1.89400000
193.73	0.76800000	1.93100000
196.80	0.80700000	1.97700000
199.98	0.85100000	2.01300000
203.25	0.89500000	2.04800000
206.64	0.94600000	2.08100000
210.14	0.99800000	2.10800000
213.77	1.04500000	2.12800000
217.52	1.09300000	2.15200000
221.40	1.14300000	2.17400000
225.43	1.19300000	2.19600000
229.60	1.25100000	2.21600000
233.93	1.30600000	2.22900000
238.43	1.36300000	2.23900000
243.11	1.42000000	2.24300000
247.97	1.47100000	2.24200000
253.03	1.52300000	2.24200000
258.30	1.57000000	2.23700000
263.80	1.61400000	2.23600000
269.53	1.65900000	2.13100000
275.52	1.70100000	2.22400000
281.78	1.73800000	2.11800000
288.34	1.77500000	2.20900000
295.20	1.80500000	2.20200000
302.40	1.83400000	2.19800000
309.96	1.86200000	2.19400000
317.91	1.88500000	2.19400000
326.28	1.90700000	2.20300000
335.10	1.94000000	2.20400000
344.40	1.96600000	2.20200000
354.24	1.97800000	2.20200000
364.66	1.98600000	2.21600000
375.71	1.99800000	2.24300000
387.45	2.02400000	2.27400000
399.95	2.05400000	2.30200000
413.28	2.08900000	2.31100000
427.54	2.10500000	2.33800000
442.80	2.11400000	2.37100000
459.20	2.12500000	2.42300000
476.87	2.14800000	2.48600000
495.94	2.17900000	2.56000000
516.60	2.22600000	2.64400000
539.07	2.29400000	2.73400000
563.57	2.38400000	2.82400000
590.41	2.50400000	2.90100000
619.93	2.64800000	2.94300000
652.55	2.78000000	2.93400000
688.81	2.86200000	2.88900000
729.32	2.89100000	2.88100000
774.91	2.89400000	2.91900000
826.57	2.93600000	3.02200000
885.61	3.05200000	3.07900000
953.73	3.11300000	3.07500000
1033.21	3.15200000	3.06900000
1127.14	3.04400000	2.94900000
1239.85	2.66700000	3.07100000
1377.61	2.30000000	3.47600000
1549.81	2.06100000	4.12800000
1771.22	1.90500000	4.85900000
2066.42	1.64700000	5.79100000
2479.70	1.27900000	7.30600000
