; From SOPRA S.A. http://www.sopra-sa.com/indices.htm
; Filename    Symbol               Range (nm)     Description
; VSI2-B      VSi2                253    24797    Vanadium Silicide (parallel to c axis)
; lambda/nm       n         k
253.03	2.68800000	3.36800000
255.64	2.66356200	3.35968800
258.30	2.65900000	3.39700000
261.02	2.67542000	3.45509800
263.80	2.71470000	3.50762200
266.63	2.78415100	3.51757900
269.53	2.86097600	3.50527300
272.49	2.92327600	3.48264700
275.52	2.97659600	3.45181300
278.62	3.02235400	3.41559100
281.78	3.06936700	3.38198700
285.02	3.12721200	3.35937600
288.34	3.18332600	3.34222000
291.73	3.22545800	3.32528500
295.20	3.26447000	3.30051500
298.76	3.31103100	3.26043800
302.40	3.35820100	3.21251600
306.14	3.39868900	3.16499200
309.96	3.43398200	3.12106200
313.89	3.46631700	3.08236100
317.91	3.49751700	3.04122800
322.04	3.52883400	2.99076600
326.28	3.55773500	2.93941900
330.63	3.58134500	2.89607100
335.10	3.59856200	2.85786700
339.69	3.60930500	2.82016200
344.40	3.61647300	2.78041400
349.25	3.62295900	2.73707100
354.24	3.62787000	2.69201800
359.38	3.62985200	2.64804900
364.66	3.62884000	2.60707100
370.11	3.62513500	2.57082100
375.71	3.62005000	2.54169900
381.49	3.61498900	2.52117400
387.45	3.61142900	2.50464800
393.60	3.61045100	2.48726400
399.95	3.60868500	2.46735500
406.51	3.60269700	2.44361200
413.28	3.59272600	2.42273700
420.29	3.57887400	2.41169500
427.54	3.56546200	2.40567500
435.04	3.55728000	2.39999500
442.80	3.54970500	2.39712100
450.86	3.53803900	2.39926100
459.20	3.52617600	2.40492200
467.87	3.51808200	2.41255900
476.87	3.50989900	2.42402400
486.22	3.49730900	2.44100200
495.94	3.48500000	2.46300000
506.06	3.47705800	2.48943900
516.60	3.47195200	2.52202300
527.60	3.46857300	2.56236700
539.07	3.47003100	2.61009300
551.05	3.47880800	2.66598400
563.57	3.49594700	2.72691600
576.68	3.52249800	2.79007400
590.41	3.56120700	2.85507900
604.81	3.61499600	2.92141300
619.93	3.68344000	2.98715400
635.82	3.76676100	3.05062800
652.55	3.85791500	3.10762900
670.19	3.94990900	3.15395500
688.81	4.04991900	3.19049000
708.49	4.16487200	3.21806700
729.32	4.29368200	3.23116800
751.43	4.43332700	3.22460000
774.91	4.56275200	3.20185000
799.90	4.66353000	3.16658900
826.57	4.75611800	3.11161800
855.07	4.86119700	3.03171100
885.61	4.96316500	2.94306600
918.41	5.04320800	2.86104600
953.73	5.10229700	2.77438700
991.88	5.14200500	2.67167000
1033.21	5.14982400	2.55910800
1078.13	5.11574600	2.44916600
1127.14	5.03655300	2.37024400
1180.81	4.91889200	2.34582800
1239.85	4.82412500	2.36113300
1305.11	4.80279400	2.39605100
1377.61	4.77821400	2.43565600
1458.65	4.67098000	2.47129800
1549.81	4.52078700	2.54652300
1653.14	4.37434100	2.70503300
1771.22	4.24121200	2.91161800
1907.46	4.13004100	3.13126600
2066.42	4.00443900	3.40576500
2254.28	3.82633300	3.77540300
2479.70	3.66760600	4.31431100
