; From SOPRA S.A. http://www.sopra-sa.com/indices.htm
; Filename    Symbol               Range (nm)     Description
; VSI2-A      VSi2                253    24797    Vanadium Silicide (perpendicular to c axis)
; lambda/nm       n         k
253.03	2.50200000	3.26500000
255.64	2.48843800	3.26793800
258.30	2.49000000	3.28200000
261.02	2.50331300	3.30031300
263.80	2.52500000	3.31600000
266.63	2.55137500	3.31400000
269.53	2.58000000	3.31200000
272.49	2.60368700	3.32875000
275.52	2.63300000	3.34600000
278.62	2.67875000	3.34925000
281.78	2.73300000	3.34600000
285.02	2.79587500	3.33656200
288.34	2.85400000	3.32800000
291.73	2.88531300	3.33243800
295.20	2.91600000	3.33500000
298.76	2.97106200	3.32237500
302.40	3.03200000	3.30200000
306.14	3.08875000	3.27562500
309.96	3.14100000	3.24700000
313.89	3.18143800	3.22293800
317.91	3.22100000	3.19600000
322.04	3.27343800	3.15793700
326.28	3.32300000	3.11800000
330.63	3.35468700	3.08325000
335.10	3.38000000	3.05200000
339.69	3.40562500	3.02737500
344.40	3.43100000	3.00200000
349.25	3.45768800	2.96818800
354.24	3.48600000	2.93000000
359.38	3.51875000	2.88893800
364.66	3.55000000	2.84500000
370.11	3.57500000	2.79637500
375.71	3.59300000	2.75000000
381.49	3.60018700	2.71493700
387.45	3.60100000	2.68300000
393.60	3.59943700	2.64618800
399.95	3.59300000	2.61300000
406.51	3.57787500	2.58981300
413.28	3.56200000	2.57500000
420.29	3.55318800	2.57056300
427.54	3.54800000	2.57200000
435.04	3.54562500	2.57500000
442.80	3.54600000	2.58100000
450.86	3.54775000	2.59006200
459.20	3.55400000	2.60200000
467.87	3.56875000	2.61806200
476.87	3.58800000	2.63400000
486.22	3.60975000	2.64475000
495.94	3.63200000	2.65400000
506.06	3.65118800	2.66293800
516.60	3.67000000	2.67400000
527.60	3.68893700	2.69050000
539.07	3.71100000	2.71100000
551.05	3.74006200	2.73562500
563.57	3.77400000	2.76300000
576.68	3.80900000	2.79225000
590.41	3.85400000	2.82200000
604.81	3.91862500	2.85462500
619.93	3.99700000	2.87800000
635.82	4.09337500	2.87906200
652.55	4.18700000	2.86300000
670.19	4.25550000	2.82525000
688.81	4.30800000	2.78200000
708.49	4.34262500	2.74975000
729.32	4.37000000	2.72300000
751.43	4.40281200	2.70068800
774.91	4.43300000	2.68600000
799.90	4.45443800	2.68143700
826.57	4.47400000	2.68800000
855.07	4.48337500	2.71212500
885.61	4.52200000	2.74000000
918.41	4.64668700	2.76875000
953.73	4.79700000	2.77200000
991.88	4.94225000	2.71968700
1033.21	5.05000000	2.62000000
1078.13	5.06675000	2.45225000
1127.14	5.02500000	2.27300000
1180.81	4.93075000	2.13162500
1239.85	4.81000000	2.02900000
1305.11	4.70487500	1.98568700
1377.61	4.57300000	1.99200000
1458.65	4.37800000	2.04681300
1549.81	4.14400000	2.14500000
1653.14	3.88181300	2.25400000
1771.22	3.59500000	2.45500000
1907.46	3.27000000	2.83893800
2066.42	2.96900000	3.34400000
2254.28	2.74950000	3.90881300
2479.70	2.61200000	4.62300000
