;  Optical constants for polycrystalline W
; 
;   taken from:
;
;   'Handbook of Optical Constants of Solids', Ed. by Edward D. Palik,
;   Academic Press, Inc., 1985.
;   
;    Lambda (nm)            n            k
;-----------------------------------------
101.62	1.13000000	1.48000000
103.32	1.16000000	1.48000000
104.18	1.18000000	1.48000000
105.07	1.20000000	1.48000000
105.97	1.21000000	1.48000000
106.88	1.22000000	1.48000000
107.81	1.24000000	1.47000000
108.75	1.25000000	1.46000000
109.72	1.26000000	1.45000000
110.70	1.27000000	1.44000000
111.69	1.28000000	1.43000000
112.71	1.28000000	1.42000000
113.74	1.29000000	1.41000000
114.80	1.29000000	1.39000000
115.87	1.28000000	1.38000000
116.96	1.28000000	1.36000000
118.08	1.26000000	1.34000000
119.21	1.24000000	1.33000000
120.37	1.22000000	1.33000000
121.55	1.19000000	1.33000000
122.75	1.16000000	1.33000000
123.98	1.13000000	1.34000000
125.23	1.11000000	1.36000000
126.51	1.09000000	1.38000000
127.81	1.07000000	1.41000000
129.15	1.05000000	1.44000000
130.51	1.04000000	1.47000000
131.89	1.03000000	1.50000000
133.31	1.03000000	1.52000000
134.76	1.02000000	1.55000000
136.24	1.02000000	1.57000000
137.76	1.01000000	1.60000000
139.30	1.02000000	1.63000000
140.89	1.01000000	1.65000000
142.51	0.99900000	1.67000000
144.16	0.98600000	1.70000000
145.86	0.97300000	1.73000000
147.60	0.95600000	1.76000000
149.37	0.94300000	1.81000000
151.19	0.93500000	1.86000000
153.06	0.93500000	1.91000000
154.97	0.93700000	1.95000000
156.94	0.93200000	2.00000000
158.95	0.93000000	2.06000000
161.01	0.93700000	2.12000000
163.13	0.95000000	2.18000000
165.31	0.96400000	2.24000000
167.54	0.97900000	2.29000000
169.84	0.99300000	2.36000000
172.19	1.01000000	2.43000000
174.62	1.04000000	2.49000000
177.11	1.06000000	2.56000000
179.68	1.09000000	2.63000000
182.32	1.12000000	2.70000000
185.05	1.16000000	2.78000000
187.85	1.21000000	2.87000000
190.74	1.26000000	2.95000000
193.72	1.31000000	3.04000000
196.79	1.38000000	3.14000000
199.97	1.47000000	3.24000000
203.25	1.58000000	3.33000000
206.63	1.70000000	3.42000000
210.14	1.83000000	3.52000000
213.76	2.00000000	3.61000000
217.51	2.20000000	3.67000000
221.39	2.43000000	3.70000000
225.42	2.68000000	3.68000000
229.59	2.92000000	3.58000000
233.93	3.11000000	3.43000000
238.42	3.27000000	3.27000000
243.10	3.38000000	3.05000000
247.96	3.40000000	2.85000000
253.02	3.37000000	2.68000000
258.29	3.33000000	2.57000000
263.79	3.29000000	2.48000000
269.52	3.24000000	2.41000000
275.51	3.19000000	2.35000000
281.77	3.13000000	2.32000000
288.33	3.07000000	2.31000000
295.19	3.01000000	2.33000000
302.39	2.97000000	2.37000000
309.95	2.95000000	2.43000000
313.87	2.95000000	2.46000000
317.90	2.96000000	2.50000000
322.03	2.98000000	2.53000000
326.26	2.99000000	2.56000000
330.61	3.02000000	2.60000000
335.08	3.05000000	2.62000000
339.67	3.09000000	2.65000000
344.39	3.13000000	2.67000000
349.24	3.18000000	2.69000000
354.23	3.24000000	2.70000000
359.36	3.32000000	2.70000000
364.65	3.39000000	2.66000000
370.09	3.43000000	2.60000000
375.70	3.45000000	2.55000000
381.48	3.45000000	2.49000000
387.44	3.43000000	2.45000000
393.59	3.41000000	2.43000000
399.94	3.39000000	2.41000000
406.49	3.37000000	2.42000000
413.27	3.35000000	2.42000000
420.27	3.33000000	2.43000000
427.52	3.32000000	2.45000000
435.02	3.31000000	2.47000000
442.79	3.30000000	2.49000000
450.84	3.31000000	2.53000000
459.19	3.31000000	2.55000000
467.85	3.32000000	2.59000000
476.85	3.34000000	2.62000000
486.20	3.35000000	2.64000000
495.92	3.38000000	2.68000000
506.04	3.42000000	2.71000000
516.58	3.45000000	2.72000000
527.58	3.48000000	2.72000000
539.04	3.50000000	2.72000000
551.02	3.50000000	2.73000000
563.54	3.49000000	2.75000000
576.65	3.51000000	2.81000000
590.38	3.54000000	2.84000000
604.78	3.57000000	2.86000000
619.90	3.60000000	2.89000000
635.79	3.65000000	2.92000000
652.53	3.70000000	2.94000000
670.16	3.76000000	2.95000000
688.78	3.82000000	2.91000000
708.46	3.85000000	2.86000000
729.29	3.84000000	2.78000000
751.39	3.78000000	2.72000000
774.88	3.67000000	2.68000000
799.87	3.56000000	2.73000000
826.53	3.48000000	2.79000000
855.03	3.38000000	2.85000000
885.57	3.29000000	2.96000000
918.37	3.20000000	3.07000000
953.69	3.12000000	3.24000000
991.84	3.05000000	3.39000000
1033.17	3.00000000	3.64000000
1078.09	3.02000000	3.83000000
1127.09	3.05000000	4.04000000
1180.76	3.11000000	4.19000000
1239.80	3.14000000	4.32000000
1265.10	3.15000000	4.36000000
1291.46	3.15000000	4.41000000
1318.94	3.15000000	4.43000000
1347.61	3.14000000	4.45000000
1377.56	3.11000000	4.44000000
1408.86	3.05000000	4.42000000
1425.06	3.00000000	4.39000000
1441.63	2.92000000	4.37000000
1458.59	2.80000000	4.33000000
1475.95	2.62000000	4.37000000
1493.73	2.47000000	4.47000000
1511.95	2.36000000	4.61000000
1549.75	2.22000000	4.85000000
1589.49	2.12000000	5.05000000
1631.32	1.97000000	5.27000000
1675.41	1.83000000	5.52000000
1721.94	1.70000000	5.81000000
1771.14	1.59000000	6.13000000
1823.24	1.52000000	6.45000000
1878.48	1.45000000	6.78000000
1937.19	1.36000000	7.14000000
1999.68	1.28000000	7.52000000
2066.33	1.21000000	7.96000000
2137.59	1.18000000	8.44000000
2213.93	1.20000000	8.94000000
2295.93	1.23000000	9.45000000
2384.23	1.30000000	9.98000000
2479.60	1.40000000	10.50000000
