; Refractive index spectrum for W by Rakic
;
; A. D. Rakić, A. B. Djurišic, J. M. Elazar, and M. L. Majewski. Optical properties of metallic films for vertical-cavity optoelectronic devices, <a href="http://dx.doi.org/10.1364/AO.37.005271"><i>Appl. Opt.</i> <b>37</b>, 5271-5283 (1998)</a>
;
; Fit of the experimental data from several sources to Brendel-Bormann (BB) model
;
; lambda/nm    n     k
206.60 	2.26651847 	2.75255407 
210.90 	2.32114091 	2.74926239 
215.28 	2.37434690 	2.74458117 
219.75 	2.42606802 	2.73863228 
224.32 	2.47624534 	2.73153877 
228.99 	2.52482903 	2.72342413 
233.75 	2.57177784 	2.71441172 
238.61 	2.61705865 	2.70462425 
243.57 	2.66064593 	2.69418338 
248.63 	2.70252131 	2.68320943 
253.80 	2.74267310 	2.67182116 
259.08 	2.78109584 	2.66013565 
264.46 	2.81778997 	2.64826819 
269.96 	2.85276147 	2.63633235 
275.57 	2.88602160 	2.62444001 
281.30 	2.91758676 	2.61270146 
287.15 	2.94747837 	2.60122558 
293.12 	2.97572288 	2.59011997 
299.21 	3.00235194 	2.57949113 
305.43 	3.02740256 	2.56944463 
311.78 	3.05091757 	2.56008520 
318.27 	3.07294609 	2.55151682 
324.88 	3.09354422 	2.54384262 
331.64 	3.11277585 	2.53716468 
338.53 	3.13071363 	2.53158368 
345.57 	3.14744007 	2.52719814 
352.75 	3.16304874 	2.52410348 
360.09 	3.17764549 	2.52239057 
367.57 	3.19134966 	2.52214381 
375.21 	3.20429505 	2.52343864 
383.01 	3.21663060 	2.52633842 
390.98 	3.22852051 	2.53089073 
399.10 	3.24014351 	2.53712309 
407.40 	3.25169111 	2.54503819 
415.87 	3.26336449 	2.55460910 
424.52 	3.27536992 	2.56577453 
433.34 	3.28791248 	2.57843487 
442.35 	3.30118836 	2.59244935 
451.55 	3.31537578 	2.60763504 
460.93 	3.33062515 	2.62376801 
470.52 	3.34704903 	2.64058715 
480.30 	3.36471270 	2.65780059 
490.28 	3.38362622 	2.67509473 
500.48 	3.40373855 	2.69214533 
510.88 	3.42493450 	2.70863001 
521.50 	3.44703473 	2.72424140 
532.34 	3.46979883 	2.73869993 
543.41 	3.49293127 	2.75176552 
554.71 	3.51608974 	2.76324749 
566.24 	3.53889518 	2.77301212 
578.01 	3.56094285 	2.78098767 
590.03 	3.58181362 	2.78716685 
602.30 	3.60108496 	2.79160693 
614.82 	3.61834098 	2.79442777 
627.60 	3.63318118 	2.79580828 
640.65 	3.64522777 	2.79598180 
653.96 	3.65413132 	2.79523088 
667.56 	3.65957496 	2.79388187 
681.44 	3.66127718 	2.79229992 
695.60 	3.65899354 	2.79088459 
710.07 	3.65251761 	2.79006634 
724.83 	3.64168156 	2.79030432 
739.90 	3.62635674 	2.79208534 
755.28 	3.60645490 	2.79592429 
770.98 	3.58193050 	2.80236582 
787.01 	3.55278481 	2.81198738 
803.37 	3.51907262 	2.82540307 
820.07 	3.48091232 	2.84326811 
837.12 	3.43850058 	2.86628302 
854.52 	3.39213283 	2.89519613 
872.29 	3.34223067 	2.93080280 
890.42 	3.28937782 	2.97393788 
908.93 	3.23436515 	3.02545719 
927.83 	3.17824453 	3.08620124 
947.12 	3.12238842 	3.15693204 
966.81 	3.06854686 	3.23823169 
986.91 	3.01888449 	3.33035068 
1007.43 	2.97596746 	3.43299954 
1028.37 	2.94265620 	3.54509398 
1049.75 	2.92185524 	3.66449518 
1071.57 	2.91609135 	3.78782875 
1093.85 	2.92694588 	3.91049512 
1116.59 	2.95444640 	4.02697160 
1139.80 	2.99658803 	4.13143401 
1163.50 	3.04916121 	4.21861546 
1187.69 	3.10599429 	4.28472170 
1212.38 	3.15960234 	4.32818520 
1237.58 	3.20211835 	4.35007827 
1263.31 	3.22631349 	4.35409852 
1289.57 	3.22650738 	4.34614785 
1316.38 	3.19921755 	4.33361144 
1343.75 	3.14347368 	4.32448374 
1371.69 	3.06079433 	4.32648451 
1400.20 	2.95487124 	4.34627610 
1429.31 	2.83102509 	4.38885928 
1459.03 	2.69550309 	4.45720513 
1489.36 	2.55470523 	4.55217009 
1520.32 	2.41445766 	4.67271291 
1551.93 	2.27946715 	4.81636822 
1584.19 	2.15305350 	4.97985465 
1617.13 	2.03716802 	5.15966106 
1650.75 	1.93261821 	5.35248928 
1685.06 	1.83938205 	5.55550913 
1720.10 	1.75691460 	5.76644905 
1755.85 	1.68439377 	5.98357749 
1792.36 	1.62089209 	6.20562877 
1829.62 	1.56548343 	6.43171188 
1867.66 	1.51730174 	6.66122350 
1906.48 	1.47556810 	6.89377447 
1946.12 	1.43959869 	7.12913169 
1986.58 	1.40880223 	7.36717402 
2027.88 	1.38267238 	7.60785985 
