; Refractive index spectrum of the Brewer Science WiDE-C 
; bottom anti-reflection coating.
; Source: Brewer Science
;
; lambda/nm   n        k
198.40 	1.533500 	0.629130 
200.00 	1.561400 	0.564770 
201.60 	1.593100 	0.582430 
203.30 	1.635000 	0.556330 
205.00 	1.659400 	0.554260 
206.70 	1.685600 	0.545490 
208.40 	1.711900 	0.530660 
210.20 	1.732700 	0.508970 
212.00 	1.741100 	0.474180 
213.80 	1.759800 	0.457240 
215.70 	1.766400 	0.419750 
217.50 	1.765200 	0.392690 
219.50 	1.760500 	0.367020 
221.40 	1.753000 	0.347220 
223.40 	1.743300 	0.336620 
225.40 	1.733600 	0.325970 
227.50 	1.724900 	0.316210 
229.60 	1.714100 	0.310250 
231.80 	1.701100 	0.305750 
234.00 	1.700200 	0.296640 
236.20 	1.700900 	0.283180 
238.50 	1.708500 	0.274930 
240.80 	1.719400 	0.269750 
243.10 	1.724200 	0.264360 
245.50 	1.732700 	0.262040 
248.00 	1.739700 	0.263120 
250.50 	1.744100 	0.263330 
253.10 	1.744500 	0.266220 
255.70 	1.748500 	0.266770 
258.30 	1.750000 	0.266890 
261.10 	1.751900 	0.263460 
263.80 	1.756100 	0.260410 
266.70 	1.758100 	0.254830 
269.60 	1.758300 	0.246560 
272.50 	1.756500 	0.238380 
275.60 	1.754400 	0.228020 
278.70 	1.749000 	0.219290 
281.80 	1.740800 	0.212000 
285.10 	1.732300 	0.206280 
288.40 	1.724500 	0.201580 
291.80 	1.716200 	0.197790 
295.20 	1.708400 	0.194600 
298.80 	1.700800 	0.192680 
302.40 	1.693600 	0.192390 
306.20 	1.686400 	0.193440 
310.00 	1.678300 	0.197100 
313.90 	1.671100 	0.202960 
317.50 	1.663200 	0.211920 
322.10 	1.658800 	0.219730 
326.30 	1.655400 	0.229470 
330.70 	1.654500 	0.241040 
335.10 	1.654500 	0.254140 
339.70 	1.657600 	0.268290 
344.40 	1.663900 	0.282640 
349.30 	1.674000 	0.296390 
354.30 	1.687800 	0.310250 
359.40 	1.704800 	0.322060 
364.70 	1.725900 	0.331950 
370.10 	1.752900 	0.338290 
375.80 	1.782300 	0.340120 
381.50 	1.815500 	0.334790 
387.50 	1.848800 	0.320550 
393.60 	1.880200 	0.297430 
400.00 	1.906900 	0.267600 
406.60 	1.928500 	0.231330 
413.30 	1.942400 	0.187520 
420.30 	1.942800 	0.139170 
427.60 	1.928200 	0.093550 
435.10 	1.904100 	0.057860 
442.90 	1.876600 	0.034050 
450.90 	1.850900 	0.020650 
459.30 	1.829600 	0.013750 
467.90 	1.812500 	0.009470 
476.90 	1.798600 	0.006640 
486.30 	1.786500 	0.004730 
496.00 	1.775800 	0.003460 
506.10 	1.766000 	0.002510 
516.70 	1.757000 	0.002140 
527.70 	1.749000 	0.001780 
539.10 	1.741600 	0.001630 
551.10 	1.734900 	0.001730 
563.80 	1.728900 	0.001720 
578.70 	1.723400 	0.001590 
590.50 	1.718500 	0.001410 
604.90 	1.713900 	0.001330 
620.00 	1.710100 	0.001610 
635.90 	1.708700 	0.001590 
652.80 	1.703500 	0.001300 
670.30 	1.700400 	0.001010 
688.90 	1.697100 	0.000670 
708.60 	1.694400 	0.000840 
729.40 	1.691800 	0.000000 
751.50 	1.689200 	0.000000 
775.00 	1.688800 	0.000000 
800.00 	1.684500 	0.000000 
828.90 	1.682200 	0.000000 
855.20 	1.679100 	0.000000 
885.70 	1.677500 	0.000000 
918.50 	1.674800 	0.000000 
983.90 	1.672300 	0.000000 
992.00 	1.670000 	0.000000 
