;UO 
;UO Y2O3.ASC:  Values of n and k for cubic yttrium oxide from
;UO various references in HOCII (pg. 1088).  References are 16,
;UO 17, 18, 35, 36, 38, 40. 
;UO 
;UO From HANDBOOK OF OPTICAL CONSTANTS IN SOLIDS II edited by Edward D.
;UO Palik. Copyright (c) 1991 by Academic Press, Inc. Reproduced by
;UO permission of the publisher.
;UO -----------------------------------------------------------     
;UO        nm        n        k
;UO -----------------------------------------------------------	
;N  7
;L    Wavelength[nm]        n        k
100.80	1.29600000	1.28200000
101.60	1.30100000	1.26700000
102.50	1.30500000	1.25000000
103.30	1.30800000	1.23800000
104.20	1.32300000	1.23400000
105.10	1.35600000	1.23500000
106.00	1.39000000	1.24600000
106.90	1.41500000	1.25900000
107.80	1.44000000	1.27300000
108.80	1.48100000	1.28500000
109.70	1.52000000	1.29100000
110.70	1.53700000	1.29700000
111.70	1.54300000	1.29200000
112.70	1.55500000	1.28600000
113.70	1.57500000	1.27600000
114.80	1.61500000	1.26400000
115.90	1.64300000	1.25800000
117.00	1.68400000	1.26400000
118.10	1.70400000	1.26200000
119.20	1.71600000	1.25200000
120.40	1.72100000	1.23700000
121.60	1.72500000	1.22100000
122.80	1.73000000	1.20800000
124.00	1.73500000	1.19600000
125.20	1.74100000	1.19200000
126.50	1.74900000	1.17000000
127.80	1.75700000	1.16300000
129.20	1.76600000	1.16500000
130.50	1.78200000	1.17300000
131.90	1.81100000	1.18000000
133.30	1.85700000	1.18500000
134.80	1.89800000	1.19700000
136.20	1.90800000	1.21600000
137.80	1.92500000	1.23500000
139.30	1.94600000	1.26600000
140.90	1.97500000	1.21200000
142.50	2.02100000	1.21100000
144.20	2.05100000	1.21600000
145.90	2.08900000	1.22100000
147.60	2.13900000	1.22000000
149.40	2.18100000	1.21700000
151.20	2.19600000	1.20500000
153.10	2.20900000	1.18800000
155.00	2.22200000	1.16200000
156.90	2.24000000	1.13600000
159.00	2.26500000	1.12300000
161.00	2.29400000	1.12400000
163.10	2.31400000	1.12100000
165.30	2.33400000	1.11000000
167.50	2.41800000	1.10300000
169.80	2.46800000	1.11000000
172.20	2.52300000	1.11800000
174.60	2.59200000	1.11800000
177.10	2.68200000	1.10900000
179.70	2.82000000	1.09300000
182.30	2.91600000	1.05400000
185.10	2.95200000	0.92600000
187.90	2.94700000	0.75500000
190.70	2.89100000	0.59000000
193.70	2.80100000	0.42700000
196.80	2.68200000	0.27600000
200.00	2.62800000	0.18600000
203.30	2.58300000	0.24900000
206.60	2.65200000	0.27600000
210.10	2.72600000	0.12900000
213.80	2.63200000	0.01130000
217.50	2.48300000	0.00008740
221.40	2.36000000	0.00007670
225.40	2.31500000	0.00000949
229.60	2.26600000	0.00000229
233.90	2.23300000	0.00000105
238.40	2.19900000	0.00000076
243.10	2.17600000	0.00000630
248.00	2.15500000	0.00000560
253.00	2.12700000	0.00000500
258.30	2.11500000	0.00000450
263.80	2.10600000	0.00000400
269.50	2.09600000	0.00000350
275.50	2.08500000	0.00000310
281.80	2.07300000	0.00000270
288.30	2.06200000	0.00000240
295.20	2.05200000	0.00000220
302.40	2.04200000	0.00000190
310.00	2.03400000	0.00000170
317.90	2.02500000	0.00000140
326.30	2.01700000	0.00000120
335.10	2.01000000	0.00000090
344.40	2.00400000	0.00000060
354.20	1.99800000	0.00000040
364.70	1.99200000	0.0
375.70	1.98500000	0.0
387.50	1.97800000	0.0
400.00	1.97100000	0.0
413.30	1.96400000	0.0
427.50	1.95900000	0.0
442.80	1.95300000	0.0
459.20	1.94800000	0.0
476.90	1.94400000	0.0
495.90	1.94000000	0.0
500.00	1.93900000	0.0
512.80	1.93800000	0.0
516.60	1.93800000	0.0
526.30	1.93700000	0.0
539.10	1.93600000	0.0
540.50	1.93600000	0.0
555.60	1.93500000	0.0
563.60	1.93400000	0.0
571.40	1.93300000	0.0
588.20	1.93200000	0.0
590.40	1.93200000	0.0
606.10	1.93100000	0.0
619.90	1.93000000	0.0
625.00	1.92600000	0.0
645.20	1.92300000	0.0
666.70	1.92100000	0.0
689.70	1.91900000	0.0
714.30	1.91700000	0.0
740.70	1.91500000	0.0
769.20	1.91300000	0.0
800.00	1.91100000	0.0
833.30	1.90900000	0.0
869.60	1.90800000	0.0
909.10	1.90600000	0.0
952.40	1.90400000	0.0
1000.00	1.90300000	0.0
1020.40	1.90200000	0.0
1041.70	1.90100000	0.0
1063.80	1.90100000	0.0
1087.00	1.90000000	0.0
1111.10	1.90000000	0.0
1136.40	1.89900000	0.0
1162.80	1.89800000	0.0
1190.50	1.89800000	0.0
1219.50	1.89700000	0.0
1250.00	1.89600000	0.0
1282.10	1.89600000	0.0
1315.80	1.89500000	0.0
1351.40	1.89500000	0.0
1388.90	1.89400000	0.0
1428.60	1.89300000	0.0
1470.60	1.89300000	0.0
1515.20	1.89200000	0.0
1562.50	1.89100000	0.0
1612.90	1.89100000	0.0
1666.70	1.89000000	0.0
1724.10	1.88900000	0.0
1785.70	1.88800000	0.0
1851.90	1.88800000	0.0
1923.10	1.88700000	0.0
2000.00	1.88600000	0.0
2040.80	1.88500000	0.0
2083.30	1.88500000	0.0
2127.70	1.88400000	0.0
2173.90	1.88300000	0.0
2222.20	1.88300000	0.0
2272.70	1.88200000	0.0
2325.60	1.88100000	0.0
2381.00	1.88100000	0.0
2439.00	1.88000000	0.0
2500.00	1.87900000	0.0
2564.10	1.87800000	0.0
2631.60	1.87700000	0.0
2702.70	1.87600000	0.0
2777.80	1.87500000	0.0
2857.10	1.87400000	0.0
2900.00	1.87300000	0.00000065
2941.20	1.87300000	0.0
